0  0.011281976846543887924  0.15021302770761188472
5.9999999999999994754e-012  0.011057044098437622884  0.14870806365787717085
1.1999999999999998951e-011  0.010838318851456415354  0.14722988046898913272
1.7999999999999999234e-011  0.01062560040838925364  0.14577791608051784977
2.3999999999999997902e-011  0.010418696506466243804  0.14435162975502732752
2.99999999999999998e-011  0.010217422572832122324  0.14295049893464606416
3.5999999999999998468e-011  0.010021601170783682108  0.1415740171838298922
4.1999999999999997136e-011  0.0098310615500221236462  0.14022169268713113865
4.7999999999999995803e-011  0.0096456392632399360482  0.13889304707752606061
5.3999999999999994471e-011  0.0094651758297188432617  0.13758761448414491557
5.9999999999999999601e-011  0.0092895184340589052191  0.13630494073260077115
6.5999999999999991806e-011  0.0091185196529072649885  0.13504458266000354816
7.1999999999999996936e-011  0.0089520372044858548266  0.13380610751745120046
7.7999999999999989142e-011  0.0087899337172078102765  0.13258909244133026961
8.3999999999999994272e-011  0.0086320765150601462545  0.1313931239834120468
8.9999999999999986477e-011  0.0084783374170412321297  0.13021779768557931178
9.5999999999999991607e-011  0.0083285925496016169345  0.12906271769648752779
1.0199999999999999674e-010  0.0081827221703554189197  0.12792749642164830126
1.0799999999999998894e-010  0.0080406105020531006  0.12681175420325280223
1.1399999999999999407e-010  0.0079021455758532498093  0.12571511902594095789
1.199999999999999992e-010  0.0077672190831962438506  0.12463722624638469416
1.2599999999999997848e-010  0.0076357262353446810413  0.12357771834230214802
1.3199999999999998361e-010  0.0075075656301852962057  0.12253624468038259998
1.3799999999999998874e-010  0.0073826391257329490939  0.12151246130115997413
1.4399999999999999387e-010  0.0072608517196574131128  0.12050603071761523122
1.49999999999999999e-010  0.0071421114346942333323  0.11951662172847954402
1.5599999999999997828e-010  0.0070263292093159486831  0.11854390924308130795
1.6199999999999998341e-010  0.0069134187934568949729  0.11758757411781990687
1.6799999999999998854e-010  0.0068032966488913750036  0.1166473030026101837
1.7399999999999999367e-010  0.0066958818540034589772  0.11572278819665086924
1.7999999999999997295e-010  0.0065910960126947613219  0.11481372751282628575
1.8599999999999997808e-010  0.0064888631671948205845  0.1139198241500997133
1.9199999999999998321e-010  0.006389109714509218739  0.11304078657289340359
1.9799999999999998834e-010  0.006291764326333200083  0.11217632839715516169
2.0399999999999999347e-010  0.006196757872193699862  0.11132616828215816107
2.0999999999999997275e-010  0.0061040233457895108279  0.11049002982884484347
2.1599999999999997788e-010  0.0060134957941165171139  0.10966764148203897444
2.2199999999999998301e-010  0.0059251122494467286378  0.10885873643807122968
2.2799999999999998814e-010  0.0058388116639737468183  0.10806305255704881652
2.3399999999999996742e-010  0.0057545348468528729341  0.10728033227812890094
2.399999999999999984e-010  0.0056722244037280085058  0.10651032253944223149
2.4599999999999997768e-010  0.0055918246784457210571  0.10575277470067365182
2.5199999999999995697e-010  0.0055132816969645052907  0.10500744446908995278
2.5799999999999998794e-010  0.0054365431133212259451  0.10427409182842328761
2.6399999999999996723e-010  0.0053615581575329864308  0.10355248097011472697
2.699999999999999982e-010  0.0052882775853967207633  0.10284238022718766858
2.7599999999999997749e-010  0.0052166536300429352732  0.10214356200997629087
2.8199999999999995677e-010  0.0051466399552521314639  0.10145580274436875878
2.8799999999999998775e-010  0.0050781916103909115548  0.10077888281173701113
2.9399999999999996703e-010  0.0050112649868424520225  0.10011258648983605013
2.99999999999999998e-010  0.0049458177760783855054  0.099456701896638272098
3.0599999999999997729e-010  0.0048818089290251958159  0.098811020934156890139
3.1199999999999995657e-010  0.0048191986168867138179  0.098175339234318037551
3.1799999999999998755e-010  0.0047579481933275064726  0.097549456106402837596
3.2399999999999996683e-010  0.0046980201578173943697  0.096933174484460121745
3.2999999999999994611e-010  0.0046393781202904394931  0.096326300876660261863
3.3599999999999997709e-010  0.0045819867669176887748  0.095728645314949373235
3.4199999999999995637e-010  0.0045258118270873372302  0.095140021306360206266
3.4799999999999998735e-010  0.0044708200413317994437  0.094560245783646315609
3.5399999999999996663e-010  0.0044169791304917707317  0.09398913905863560958
3.5999999999999994591e-010  0.0043642577656777207379  0.093426524774046060262
3.6599999999999997689e-010  0.0043126255393815728784  0.092872229857816734899
3.7199999999999995617e-010  0.0042620529373429841616  0.092326084476089254061
3.7799999999999998715e-010  0.0042125113115429992441  0.091787921989148438251
3.8399999999999996643e-010  0.0041639728537960938801  0.091257578904944597342
3.8999999999999994571e-010  0.0041164105704024466642  0.090734894835476018193
3.9599999999999997669e-010  0.0040697982574932544883  0.090219712452359934751
4.0199999999999995597e-010  0.0040241104771583597124  0.089711877442826479245
4.0799999999999998695e-010  0.0039793225343847894379  0.08921123846674015867
4.1399999999999996623e-010  0.003935410454623388711  0.088717647112887168537
4.1999999999999994551e-010  0.0038923509621818235156  0.088230957856999636668
4.2599999999999997649e-010  0.0038501214591484303994  0.087751028018461754709
4.3199999999999995577e-010  0.0038087000051119442208  0.087277717718922329104
4.3799999999999998675e-010  0.00376806529739020157  0.086810889839814470159
4.4399999999999996603e-010  0.0037281966519857687864  0.086350409981490752753
4.4999999999999994531e-010  0.0036890739850046977769  0.08589614642118349741
4.5599999999999997629e-010  0.0036506777947497609689  0.085447970072433682143
4.6199999999999995557e-010  0.0036129891443153318645  0.085005754444217859755
4.6799999999999993485e-010  0.0035759896447521851391  0.084569375600771518053
4.7399999999999991413e-010  0.0035396614386818130334  0.084138712120899655789
4.7999999999999999681e-010  0.0035039871844760417212  0.083713645058330149462
4.8599999999999997609e-010  0.0034689500409101248386  0.083294057902231238844
4.9199999999999995537e-010  0.0034345336522627997917  0.082879836537758683201
4.9799999999999993465e-010  0.0034007221338418825753  0.082470869206549321517
5.0399999999999991393e-010  0.0033675000580456440798  0.082067046468672730231
5.0999999999999999661e-010  0.0033348524407387507458  0.081668261163548111492
5.1599999999999997589e-010  0.0033027647281103265052  0.081274408372012482693
5.2199999999999995517e-010  0.0032712227839355161735  0.080885385378763149933
5.2799999999999993445e-010  0.0032402128771028102135  0.080501091633627064326
5.3399999999999991373e-010  0.0032097216697303345735  0.080121428715797804454
5.3999999999999999641e-010  0.0031797362054380470635  0.07974630029585130786
5.4599999999999997569e-010  0.0031502438980698594176  0.079375612099307421565
5.5199999999999995497e-010  0.0031212325207841127087  0.079009271870890102063
5.5799999999999993425e-010  0.0030926901953664894147  0.07864718933778230836
5.6399999999999991353e-010  0.0030646053819664274311  0.078289276174536542863
5.6999999999999999621e-010  0.0030369668690886815476  0.07793544596765558663
5.7599999999999997549e-010  0.0030097637639109955932  0.077585614180864681533
5.8199999999999995477e-010  0.0029829854828722110298  0.077239698120489974631
5.8799999999999993405e-010  0.0029566217425211417831  0.076897616900930582107
5.9399999999999991333e-010  0.0029306625507142351761  0.076559291411483626488
5.9999999999999999601e-010  0.0029050981980169995542  0.076224644282764611458
6.0599999999999997529e-010  0.0028799192493558591933  0.075893599853424517643
6.1199999999999995457e-010  0.0028551165359447373653  0.075566084137590944225
6.1799999999999993385e-010  0.0028306811474664269127  0.075242024792883221984
6.2399999999999991313e-010  0.0028066044244468685807  0.074921351088282822639
6.2999999999999999581e-010  0.0027828779508856102756  0.074603993872789542419
6.3599999999999997509e-010  0.0027594935471149653269  0.074289885544601100276
6.4199999999999995437e-010  0.0027364432628082129874  0.073978960019835546258
6.4799999999999993365e-010  0.0027137193702903459822  0.073671152702945344459
6.5399999999999991293e-010  0.0026913143579879103551  0.073366400456720104462
6.5999999999999989221e-010  0.0026692209240881410032  0.073064641572899546862
6.6599999999999997489e-010  0.0026474319703645703833  0.072765815742896339247
6.7199999999999995417e-010  0.0026259405962324390733  0.072469864029573546893
6.7799999999999993345e-010  0.0026047400929514277247  0.072176728839029938301
6.8399999999999991273e-010  0.0025838239379731321732  0.07188635389242011009
6.8999999999999989201e-010  0.0025631857895488884512  0.071598684199486353763
6.9599999999999997469e-010  0.002542819481390680772  0.071313666031002517776
7.0199999999999995397e-010  0.0025227190175320102217  0.071031246892223579015
7.0799999999999993325e-010  0.0025028785673730361873  0.07075137549720197927
7.1399999999999991253e-010  0.0024832924608607256749  0.070474001743348238525
7.1999999999999989181e-010  0.0024639551837170397229  0.070199076685053915514
7.2599999999999997449e-010  0.0024448613730078121338  0.069926552510585160416
7.3199999999999995377e-010  0.0024260058126027491537  0.069656382515929565757
7.3799999999999993305e-010  0.0024073834289941907841  0.069388521082297038856
7.4399999999999991233e-010  0.0023889892870576278847  0.069122923651385406729
7.4999999999999989161e-010  0.0023708185860710812194  0.068859546702996543566
7.5599999999999997429e-010  0.0023528666557738105863  0.068598347731906927915
7.6199999999999995357e-010  0.0023351289525458435344  0.068339285225203272311
7.6799999999999993285e-010  0.0023176010557880094912  0.068082318641303776752
7.7399999999999991213e-010  0.0023002786642702366914  0.067827408387321361238
7.7999999999999989142e-010  0.0022831575927080927438  0.06757451579860698776
7.8599999999999997409e-010  0.0022662337683499365025  0.06732360311733079361
7.9199999999999995337e-010  0.0022495032277538478185  0.067074633472779379706
7.9799999999999993265e-010  0.0022329621135788804698  0.066827570860818821807
8.0399999999999991194e-010  0.0022166066715121374338  0.066582380124356285722
8.0999999999999989122e-010  0.0022004332473236874745  0.066339026934734091068
8.1599999999999997389e-010  0.0021844382838707688231  0.066097477771406204505
8.2199999999999995317e-010  0.0021686183183948792332  0.065857699905096586668
8.2799999999999993246e-010  0.0021529699797099661682  0.065619661378430865772
8.3399999999999991174e-010  0.0021374899855848418333  0.065383330988637189396
8.3999999999999989102e-010  0.0021221751401648133659  0.065148678270012708169
8.4599999999999997369e-010  0.0021070223314710355769  0.06491567347676577282
8.5199999999999995298e-010  0.0020920285290024435293  0.064684287566648568379
8.5799999999999993226e-010  0.0020771907813489113789  0.064454492184003925326
8.6399999999999991154e-010  0.0020625062139334165295  0.064226259644064850884
8.6999999999999989082e-010  0.0020479720267705214636  0.06399956291679688436
8.7599999999999997349e-010  0.002033585492378283191  0.063774375612439870853
8.8199999999999995278e-010  0.0020193439536148188873  0.063550671965209290515
8.8799999999999993206e-010  0.0020052448217010411871  0.063328426819257738201
8.9399999999999991134e-010  0.0019912855742637673717  0.063107615614341944221
8.9999999999999989062e-010  0.0019774637533975089262  0.062888214371176240358
9.059999999999998699e-010  0.0019637769638212246304  0.062670199677697283058
9.1199999999999995258e-010  0.0019502228711069239438  0.062453548675906703225
9.1799999999999993186e-010  0.0019367991998974439828  0.062238239047991132658
9.2399999999999991114e-010  0.0019235037322820197625  0.062024249004434060806
9.2999999999999989042e-010  0.0019103343060574320793  0.061811557269776530588
9.359999999999998697e-010  0.0018972888132253117564  0.061600143071673330031
9.4199999999999984898e-010  0.0018843651983940562164  0.061389986127935496085
9.4799999999999982826e-010  0.0018715614572914647789  0.061181066634890646228
9.5400000000000001434e-010  0.0018588756353088476975  0.060973365255804073959
9.5999999999999999362e-010  0.0018463058260936029368  0.06076686310965217358
9.659999999999999729e-010  0.0018338501701732907567  0.060561541759986438349
9.7199999999999995218e-010  0.001821506853593150236  0.060357383203600706301
9.7799999999999993146e-010  0.0018092741066990608665  0.060154369861200623903
9.8399999999999991074e-010  0.0017971502027850558541  0.059952484565446592657
9.8999999999999989002e-010  0.0017851334569704787637  0.059751710552426513801
9.959999999999998693e-010  0.0017732222249380164263  0.059552031450455435169
1.0019999999999998486e-009  0.0017614149018346943708  0.05935343127123644813
1.0079999999999998279e-009  0.0017497099211494649817  0.059155894400295644386
1.0140000000000000139e-009  0.0017381057536260096762  0.058959405587675484117
1.0199999999999999932e-009  0.0017266009062084923704  0.058763949938861193001
1.0259999999999999725e-009  0.0017151939210290824845  0.058569512906102988437
1.0319999999999999518e-009  0.0017038833744373895179  0.058376080280152238544
1.0379999999999999311e-009  0.0016926678760014416542  0.058183638181217953167
1.0439999999999999103e-009  0.0016815460676162252446  0.057992173051476962609
1.0499999999999998896e-009  0.0016705166225712351612  0.057801671646609584232
1.0559999999999998689e-009  0.0016595782446761600699  0.057612121028064226802
1.0619999999999998482e-009  0.0016487296674447047932  0.057423508556073178666
1.0679999999999998275e-009  0.0016379696532144410581  0.057235821881308580894
1.0739999999999998067e-009  0.0016272969923706583854  0.057049048938096390271
1.0799999999999999928e-009  0.00161671050256927476  0.056863177937383609095
1.0859999999999999721e-009  0.0016062090279862020498  0.056678197359940833688
1.0919999999999999514e-009  0.0015957914385548858157  0.056494095949132343282
1.0979999999999999307e-009  0.0015854566292938796542  0.056310862705056821675
1.1039999999999999099e-009  0.0015752035195574574499  0.056128486877118959064
1.1099999999999998892e-009  0.0015650310524415126517  0.055946957959151139006
1.1159999999999998685e-009  0.001554938194057331035  0.055766265681993290593
1.1219999999999998478e-009  0.0015449239329467668452  0.055586400008397138239
1.1279999999999998271e-009  0.0015349872794367855865  0.055407351126665234375
1.1339999999999998063e-009  0.0015251272650774806185  0.055229109445608132178
1.1399999999999999924e-009  0.0015153429420168616857  0.055051665588188365696
1.1459999999999999717e-009  0.0015056333824789739848  0.054875010386859587874
1.151999999999999951e-009  0.0014959976781930802488  0.054699134877858539283
1.1579999999999999303e-009  0.0014864349398902053975  0.054524030296561998288
1.1639999999999999095e-009  0.0014769442967419508898  0.054349688071633879549
1.1699999999999998888e-009  0.0014675248959251144774  0.054176099821325540695
1.1759999999999998681e-009  0.0014581759020662319638  0.054003257347427328916
1.1819999999999998474e-009  0.0014488964968123131585  0.053831152631395755292
1.1879999999999998267e-009  0.0014396858783876918027  0.053659777830097128704
1.1939999999999998059e-009  0.0014305432611143333293  0.053489125270737666873
1.199999999999999992e-009  0.0014214678749796272068  0.053319187446539864639
1.2059999999999999713e-009  0.0014124589652642989459  0.05314995701342192097
1.2119999999999999506e-009  0.001403515792072019229  0.052981426784714263922
1.2179999999999999299e-009  0.0013946376299879264127  0.052813589728173682136
1.2239999999999999091e-009  0.0013858237676619823784  0.05264643896147169766
1.2299999999999998884e-009  0.0013770735074538275819  0.052479967748729185184
1.2359999999999998677e-009  0.0013683861650646170043  0.052314169496697870976
1.241999999999999847e-009  0.0013597610691811279696  0.052149037751067432722
1.2479999999999998263e-009  0.001351197561150026781  0.051984566193246754817
1.2539999999999998055e-009  0.0013426949946385568092  0.051820748636787504482
1.2599999999999999916e-009  0.0013342527353009257969  0.051657579023816548036
1.2659999999999999709e-009  0.0013258701604851332555  0.051495051422153825804
1.2719999999999999502e-009  0.0013175466589133296661  0.051333160021828576347
1.2779999999999999295e-009  0.0013092816304129191625  0.051171899132491052709
1.2839999999999999087e-009  0.0013010744855835630965  0.051011263179489355069
1.289999999999999888e-009  0.0012929246455739074658  0.050851246702001466626
1.2959999999999998673e-009  0.0012848315417893067282  0.050691844349743414577
1.3019999999999998466e-009  0.001276794615601919633  0.050533050879635589558
1.3079999999999998259e-009  0.0012688133181367445244  0.050374861153887950938
1.3139999999999998051e-009  0.0012608871100175395984  0.050217270137225489268
1.3199999999999997844e-009  0.0012530154610993964135  0.050060272893770692282
1.3259999999999999705e-009  0.0012451978502664010941  0.049903864585148130506
1.3319999999999999498e-009  0.0012374337651787730135  0.049748040467515360075
1.3379999999999999291e-009  0.0012297227020788674152  0.049592795889702917522
1.3439999999999999083e-009  0.0012220641655754510557  0.049438126290858780409
1.3499999999999998876e-009  0.0012144576683872539136  0.049284027197201610293
1.3559999999999998669e-009  0.0012069027312144055795  0.049130494221296117097
1.3619999999999998462e-009  0.0011993988824912599298  0.048977523058873852213
1.3679999999999998255e-009  0.0011919456582176752701  0.048825109487182417889
1.3739999999999998047e-009  0.0011845426017545782581  0.048673249362551872232
1.379999999999999784e-009  0.0011771892636832257881  0.048521938619210711052
1.3859999999999999701e-009  0.0011698852015784432391  0.04837117326628419256
1.3919999999999999494e-009  0.0011626299798554557644  0.048220949386246138302
1.3979999999999999287e-009  0.0011554231696583633533  0.048071263134192000754
1.4039999999999999079e-009  0.0011482643486115094202  0.0479221107342218261
1.4099999999999998872e-009  0.0011411531007329287282  0.04777348847913304164
1.4159999999999998665e-009  0.0011340890162451822999  0.047625392727938364867
1.4219999999999998458e-009  0.0011270716914451373632  0.047477819904564649844
1.4279999999999998251e-009  0.0011201007285514443922  0.047330766496042391001
1.4339999999999998043e-009  0.0011131757355820803747  0.047184229051285352108
1.4399999999999997836e-009  0.0011062963261822538353  0.047038204178779054188
1.4459999999999999697e-009  0.0010994621195509258517  0.046892688546316597942
1.451999999999999949e-009  0.0010926727402618011207  0.046747678878459861251
1.4579999999999999283e-009  0.0010859278181438551669  0.046603171955218992972
1.4639999999999999075e-009  0.0010792269882019098117  0.046459164611557746127
1.4699999999999998868e-009  0.0010725698904673563149  0.046315653735370214406
1.4759999999999998661e-009  0.0010659561698684982389  0.046172636265833857938
1.4819999999999998454e-009  0.0010593854761610280689  0.046030109193027732295
1.4879999999999998247e-009  0.0010528574637892473831  0.045888069556023980411
1.4939999999999998039e-009  0.0010463717917883860915  0.045746514441832308862
1.4999999999999997832e-009  0.0010399281237064301586  0.045605440984742819099
1.5059999999999999693e-009  0.0010335261274486270619  0.045464846363946445629
1.5119999999999999486e-009  0.0010271654752489810334  0.045324727803903709644
1.5179999999999999279e-009  0.0010208458435259080196  0.04518508257214780971
1.5239999999999999071e-009  0.0010145669128211332998  0.045045907978886016998
1.5299999999999998864e-009  0.001008328367688016711  0.044907201375459074311
1.5359999999999998657e-009  0.0010021298966199495509  0.044768960153658908518
1.541999999999999845e-009  0.00099597119197470090207  0.044631181744934800282
1.5479999999999998243e-009  0.00098985194986844814505  0.044493863618895762579
1.5539999999999998036e-009  0.00098377187011282948154  0.044357003282747345385
1.5599999999999997828e-009  0.00097773065613524163045  0.044220598280331792351
1.5659999999999997621e-009  0.00097172801489973817217  0.044084646191156803829
1.5719999999999999482e-009  0.00096576365684107395252  0.043949144629698400077
1.5779999999999999275e-009  0.00095983729579451979724  0.043814091244587509422
1.5839999999999999067e-009  0.00095394864891260196509  0.043679483717475459104
1.589999999999999886e-009  0.00094809743661375064667  0.043545319762604811631
1.5959999999999998653e-009  0.0009422833825069858605  0.043411597125813876363
1.6019999999999998446e-009  0.00093650621331759691199  0.043278313583539666787
1.6079999999999998239e-009  0.00093076565887346789357  0.043145466943201989107
1.6139999999999998032e-009  0.00092506145197767850833  0.043013055040944915552
1.6199999999999997824e-009  0.00091939332839202549813  0.04288107574191733079
1.6259999999999997617e-009  0.00091376102678008305595  0.042749526939606784237
1.6319999999999999478e-009  0.00090816428863129338659  0.042618406554710448753
1.6379999999999999271e-009  0.00090260285821013247834  0.042487712534570093448
1.6439999999999999063e-009  0.00089707648252666534038  0.042357442853096442803
1.6499999999999998856e-009  0.00089158491125775518778  0.042227595509518538186
1.6559999999999998649e-009  0.00088612789670782356275  0.042098168528044627168
1.6619999999999998442e-009  0.00088070519376469197283  0.041969159957394717997
1.6679999999999998235e-009  0.00087531655983680062196  0.041840567869874820128
1.6739999999999998028e-009  0.00086996175483366490738  0.041712390361466095134
1.679999999999999782e-009  0.00086464054109187374244  0.041584625550601599098
1.6859999999999997613e-009  0.00085935268334280949694  0.041457271577922477634
1.6919999999999999474e-009  0.00085409794868454807885  0.041330326606126600864
1.6979999999999999267e-009  0.00084887610651249232989  0.041203788818808699534
1.703999999999999906e-009  0.0008436869284945673229  0.041077656420359896783
1.7099999999999998852e-009  0.00083853018853218127746  0.040951927635513848958
1.7159999999999998645e-009  0.00083340566272510684196  0.040826600708976659715
1.7219999999999998438e-009  0.00082831312932409148411  0.040701673904744786747
1.7279999999999998231e-009  0.00082325236868983095537  0.040577145505563377847
1.7339999999999998024e-009  0.00081822316327589982889  0.040453013812963303786
1.7399999999999997816e-009  0.00081322529757981234805  0.040329277146505172758
1.7459999999999997609e-009  0.0008082585581131052771  0.040205933843479008116
1.751999999999999947e-009  0.00080332273336464806585  0.040082982258426033684
1.7579999999999999263e-009  0.00079841761378108720357  0.039960420763077236783
1.7639999999999999056e-009  0.00079354299171230466975  0.039838247745409303968
1.7699999999999998848e-009  0.00078869866141354101879  0.039716461610106737479
1.7759999999999998641e-009  0.00078388441897066598631  0.039595060777088499082
1.7819999999999998434e-009  0.00077910006231676428873  0.039474043682317730419
1.7879999999999998227e-009  0.00077434539117557474753  0.0393534087767648047
1.793999999999999802e-009  0.00076962020704200554983  0.039233154526293334552
1.7999999999999997812e-009  0.0007649243131519378085  0.039113279411267416752
1.8059999999999997605e-009  0.0007602575144654817943  0.038993781926493914503
1.8119999999999997398e-009  0.0007556196176252828571  0.038874660580519103392
1.8179999999999999259e-009  0.00075101043094399672247  0.038755913895662338908
1.8239999999999999052e-009  0.00074642976436739506742  0.038637540407417111932
1.8299999999999998844e-009  0.00074187742947411951504  0.038519538664789833293
1.8359999999999998637e-009  0.00073735323941660833695  0.038401907229110597564
1.841999999999999843e-009  0.00073285700894041021398  0.038284644674866974423
1.8479999999999998223e-009  0.00072838855431587407833  0.038167749588255112103
1.8539999999999998016e-009  0.00072394769335914674856  0.038051220568048715887
1.8599999999999997808e-009  0.0007195342453734247844  0.037935056224379710976
1.8659999999999999669e-009  0.00071514803115613938614  0.037819255179237454279
1.8719999999999997394e-009  0.0007107888729619846668  0.037703816065803856528
1.8779999999999999255e-009  0.0007064565945000084125  0.037588737528680277178
1.883999999999999698e-009  0.00070215102089183809801  0.037474018223079254286
1.889999999999999884e-009  0.00069787197866229104537  0.037359656814866248897
1.8959999999999996565e-009  0.00069361929573115042522  0.03724565198063125443
1.9019999999999998426e-009  0.0006893928013818407044  0.037132002407137723599
1.9080000000000000287e-009  0.00068519232624600313539  0.037018706791188779603
1.9139999999999998012e-009  0.00068101770228713937386  0.036905763839463867626
1.9199999999999999872e-009  0.00067686876278843187676  0.036793172268463937569
1.9259999999999997597e-009  0.00067274534232302147553  0.036680930803975560217
1.9319999999999999458e-009  0.00066864727675971093006  0.036569038181492027895
1.9379999999999997183e-009  0.00066457440321939734856  0.036457493145289003589
1.9439999999999999044e-009  0.00066052656008054296335  0.036346294448830487878
1.9499999999999996768e-009  0.00065650358695503330947  0.036235440854363379359
1.9559999999999998629e-009  0.00065250532467828409669  0.036124931132897240837
1.9619999999999996354e-009  0.00064853161528522428828  0.036014764063789846127
1.9679999999999998215e-009  0.00064458230201240487422  0.035904938435051096668
1.9740000000000000076e-009  0.00064065722925214882866  0.035795453042311083103
1.97999999999999978e-009  0.0006367562425848580579  0.035686306689957647542
1.9859999999999999661e-009  0.00063287918872617166324  0.035577498189900080838
1.9919999999999997386e-009  0.00062902591553090257074  0.035469026361909135325
1.9979999999999999247e-009  0.00062519627197800398382  0.035360890033425455836
2.0039999999999996972e-009  0.00062139010815453815315  0.035253088039334599946
2.0099999999999998832e-009  0.00061760727525639097426  0.035145619222212917676
2.0159999999999996557e-009  0.00061384762554208237295  0.035038482431237867598
2.0219999999999998418e-009  0.00061011101237092978805  0.034931676523491675401
2.0280000000000000279e-009  0.00060639729014981221845  0.034825200362663018272
2.0339999999999998004e-009  0.00060270631433661473342  0.034719052819355965267
2.0399999999999999864e-009  0.00059903794143332438158  0.03461323277110429919
2.0459999999999997589e-009  0.00059539202896948201314  0.034507739102105257356
2.051999999999999945e-009  0.00059176843548397548966  0.034402570702898802035
2.0579999999999997175e-009  0.00058816702053658784666  0.034297726470907306806
2.0639999999999999036e-009  0.00058458764467263419663  0.034193205309611854337
2.069999999999999676e-009  0.00058103016942669919072  0.034089006128859171418
2.0759999999999998621e-009  0.00057749445730602530676  0.033985127844574171407
2.0819999999999996346e-009  0.00057398037179118060937  0.033881569378975955054
2.0879999999999998207e-009  0.0005704877773114887772  0.033778329660049469241
2.0940000000000000068e-009  0.00056701653925206709286  0.033675407621944743186
2.0999999999999997792e-009  0.00056356652392304138963  0.033572802204255798586
2.1059999999999999653e-009  0.00056013759856939732921  0.033470512352499100228
2.1119999999999997378e-009  0.00055672963135685899373  0.033368537017881352846
2.1179999999999999239e-009  0.00055334249135729064555  0.033266875157047452738
2.1239999999999996964e-009  0.00054997604854376620949  0.033165525732114252422
2.1299999999999998824e-009  0.00054663017378772378423  0.03306448771076678228
2.1359999999999996549e-009  0.00054330473883756631032  0.032963760065792442611
2.141999999999999841e-009  0.00053999961632402197417  0.032863341775419670221
2.1479999999999996135e-009  0.00053671467973731221135  0.032763231822801372473
2.1539999999999997996e-009  0.00053344980343385500331  0.032663429196391952081
2.1599999999999999856e-009  0.00053020486262720203149  0.032563932889846151919
2.1659999999999997581e-009  0.00052697973335173536012  0.03246474190107585811
2.1719999999999999442e-009  0.000523774292513111135  0.032365855233968746085
2.1779999999999997167e-009  0.00052058841781418125315  0.032267271896278475196
2.1839999999999999028e-009  0.00051742198779597273553  0.032168990901051679188
2.1899999999999996752e-009  0.00051427488180748391448  0.032071011265860760453
2.1959999999999998613e-009  0.00051114698000755435722  0.031973332013024678699
2.2019999999999996338e-009  0.00050803816335434485215  0.031875952169444124462
2.2079999999999998199e-009  0.00050494831359156413814  0.031778870766330388764
2.214000000000000006e-009  0.00050187731326692592865  0.031682086839945562684
2.2199999999999997784e-009  0.00049882504568711809236  0.031585599430345411009
2.2259999999999999645e-009  0.00049579139494009168143  0.031489407582236020322
2.231999999999999737e-009  0.00049277624588073038088  0.031393510344678896007
2.2379999999999999231e-009  0.00048977948412003190562  0.031297906770901849638
2.2439999999999996956e-009  0.00048680099602484247934  0.031202595918443789408
2.2499999999999998816e-009  0.00048384066870581254102  0.031107576848922596779
2.2559999999999996541e-009  0.00048089839002017007981  0.031012848628275670182
2.2619999999999998402e-009  0.00047797404855166441282  0.030918410326265625965
2.2679999999999996127e-009  0.0004750675336105392426  0.03082426101662582435
2.2739999999999997988e-009  0.00047217873524596991981  0.03073039977761337152
2.2799999999999999848e-009  0.0004693075441999053788  0.03063682569065879352
2.2859999999999997573e-009  0.0004664538519474406824  0.030543537841823127643
2.2919999999999999434e-009  0.00046361755065703818624  0.030450535320648737525
2.2979999999999997159e-009  0.00046079853319519025866  0.030357817220452141399
2.303999999999999902e-009  0.00045799669312538999338  0.030265382638433303147
2.3099999999999996744e-009  0.00045521192470531586169  0.030173230675726980116
2.3159999999999998605e-009  0.00045244412286104965584  0.030081360436690681576
2.321999999999999633e-009  0.00044969318320991802677  0.029989771029800077473
2.3279999999999998191e-009  0.00044695900203601081953  0.029898461566977348192
2.3339999999999995916e-009  0.00044424147629326486957  0.029807431163831103749
2.3399999999999997776e-009  0.00044154050359242088793  0.029716678939357300121
2.3459999999999999637e-009  0.00043885598220255397526  0.029626204016125791407
2.3519999999999997362e-009  0.00043618781104903299071  0.029536005520348650177
2.3579999999999999223e-009  0.00043353588970248115118  0.029446082581643391596
2.3639999999999996948e-009  0.00043090011836653479248  0.029356434332750112881
2.3699999999999998808e-009  0.00042828039790365930728  0.029267059910543093831
2.3759999999999996533e-009  0.00042567662978419294403  0.029177958454429019086
2.3819999999999998394e-009  0.00042308871611853844999  0.029089129107573448441
2.3879999999999996119e-009  0.00042051655964005078304  0.029000571016448997708
2.393999999999999798e-009  0.00041796006369681750403  0.028912283330682048144
2.399999999999999984e-009  0.00041541913225429528533  0.028824265203272581015
2.4059999999999997565e-009  0.00041289366988586168527  0.028736515790396776476
2.4119999999999999426e-009  0.0004103835817650378949  0.028649034251263614387
2.4179999999999997151e-009  0.00040788877367750110171  0.028561819748661013835
2.4239999999999999012e-009  0.00040540915198798704996  0.028474871447927100482
2.4299999999999996736e-009  0.00040294462367292468866  0.028388188518217383899
2.4359999999999998597e-009  0.00040049509627926923195  0.028301770131186818752
2.4419999999999996322e-009  0.00039806047794531575082  0.028215615461843666922
2.4479999999999998183e-009  0.00039564067738858440648  0.028129723688247787461
2.4539999999999995908e-009  0.00039323560389515428617  0.028044093991254352011
2.4599999999999997768e-009  0.00039084516732817021611  0.027958725554937950003
2.4659999999999999629e-009  0.00038846927811906722906  0.027873617566403798701
2.4719999999999997354e-009  0.0003861078472566474443  0.027788769215517532263
2.4779999999999999215e-009  0.00038376078629096693241  0.027704179695163939218
2.483999999999999694e-009  0.00038142800732449073974  0.027619848201048850106
2.48999999999999988e-009  0.0003791094230170127268  0.027535773931996635616
2.4959999999999996525e-009  0.00037680494656455628929  0.027451956089304684755
2.5019999999999998386e-009  0.00037451449171968688575  0.027368393877598550662
2.5079999999999996111e-009  0.0003722379727657454309  0.027285086504013338071
2.5139999999999997972e-009  0.00036997530452385408474  0.02720203317856421249
2.5199999999999999832e-009  0.00036772640234854041263  0.027119233114103372118
2.5259999999999997557e-009  0.00036549118212211812807  0.027036685526229658344
2.5319999999999999418e-009  0.00036326956025072915839  0.026954389633257479914
2.5379999999999997143e-009  0.00036106145366226577139  0.026872344656254532752
2.5439999999999999004e-009  0.00035886677980063124262  0.02679054981894291726
2.5499999999999996728e-009  0.00035668545662948951446  0.026709004347953126113
2.5559999999999998589e-009  0.00035451740261766088438  0.026627707472392771193
2.5619999999999996314e-009  0.0003523625367394127338  0.026546658423967892798
2.5679999999999998175e-009  0.00035022077848291760602  0.026465856437414513741
2.57399999999999959e-009  0.00034809204782622528039  0.026385300749706276646
2.579999999999999776e-009  0.00034597626525005879729  0.026304990600646820792
2.5859999999999999621e-009  0.00034387335172277516465  0.026224925232411062243
2.5919999999999997346e-009  0.00034178322871510855583  0.026145103890216559589
2.5979999999999999207e-009  0.00033970581816818401456  0.026065525821213891139
2.6039999999999996932e-009  0.00033764104252036463176  0.02598619027562003303
2.6099999999999998792e-009  0.00033558882468356107751  0.025907096505921347468
2.6159999999999996517e-009  0.00033354908805309713615  0.025828243767360457156
2.6219999999999998378e-009  0.00033152175649481144086  0.025749631317547497233
2.6279999999999996103e-009  0.00032950675434178139421  0.025671258416438465927
2.6339999999999997964e-009  0.00032750400640278628768  0.025593124326771295868
2.6399999999999995689e-009  0.00032551343794800960234  0.025515228313617323991
2.6459999999999997549e-009  0.00032353497470610819353  0.025437569644370831151
2.651999999999999941e-009  0.00032156854286827636852  0.025360147589013608271
2.6579999999999997135e-009  0.00031961406908276632872  0.025282961420006411224
2.6639999999999998996e-009  0.0003176714804484465993  0.02520601041213966706
2.6699999999999996721e-009  0.00031574070451665623175  0.02512929384271098826
2.6759999999999998581e-009  0.00031382166927507908552  0.025052810990987779693
2.6819999999999996306e-009  0.00031191430317491995175  0.024976561139393067823
2.6879999999999998167e-009  0.00031001853508728363044  0.024900543571869413612
2.6939999999999995892e-009  0.0003081342943373166195  0.024824757575344684468
2.6999999999999997752e-009  0.00030626151068110585643  0.024749202438911273305
2.7059999999999999613e-009  0.00030440011430008363878  0.024673877453699231271
2.7119999999999997338e-009  0.00030255003581557615364  0.024598781913565400531
2.7179999999999999199e-009  0.00030071120627231639469  0.024523915114529181575
2.7239999999999996924e-009  0.00029888355713369318825  0.024449276354677376699
2.7299999999999998784e-009  0.00029706702029981530257  0.024374864935002831662
2.7359999999999996509e-009  0.00029526152806435478028  0.024300680157738580728
2.741999999999999837e-009  0.00029346701316408527411  0.02422672132848707402
2.7479999999999996095e-009  0.00029168340873631036069  0.024152987754574396784
2.7539999999999997956e-009  0.00028991064832270692884  0.024079478745301231835
2.7599999999999995681e-009  0.00028814866588613584266  0.024006193612738185167
2.7659999999999997541e-009  0.00028639739578891913784  0.023933131670925103518
2.7719999999999999402e-009  0.00028465677280082002073  0.023860292236300040258
2.7779999999999997127e-009  0.0002829267320795990576  0.02378767462698273133
2.7839999999999998988e-009  0.00028120720919378843763  0.023715278163824619895
2.7899999999999996713e-009  0.00027949814010343236809  0.023643102169699829751
2.7959999999999998573e-009  0.00027779946115959067241  0.023571145969578596174
2.8019999999999996298e-009  0.00027611110910288606769  0.02349940889056088833
2.8079999999999998159e-009  0.00027443302106782330087  0.023427890262156483847
2.8139999999999995884e-009  0.00027276513457015526612  0.02335658941584388415
2.8199999999999997745e-009  0.00027110738750204578257  0.023285505684955427191
2.8259999999999995469e-009  0.00026945971814834108376  0.02321463840546912627
2.831999999999999733e-009  0.00026782206516299980441  0.023143986915093079509
2.8379999999999999191e-009  0.00026619436758503845029  0.023073550554045144795
2.8439999999999996916e-009  0.00026457656481530898024  0.02300332866414376079
2.8499999999999998776e-009  0.00026296859663146806034  0.022933320589546907914
2.8559999999999996501e-009  0.00026137040318271228655  0.022863525676619179949
2.8619999999999998362e-009  0.00025978192497879700569  0.022793943273545145406
2.8679999999999996087e-009  0.00025820310289611831008  0.022724572730685975441
2.8739999999999997948e-009  0.00025663387817198411332  0.022655413400420841563
2.8799999999999995673e-009  0.00025507419240881760211  0.022586464637424669144
2.8859999999999997533e-009  0.00025352398755501759841  0.022517725797913855368
2.8919999999999999394e-009  0.0002519832059264958562  0.022449196240689590909
2.8979999999999997119e-009  0.00025045179017981020631  0.022380875326037191764
2.903999999999999898e-009  0.00024892968333597602143  0.022312762416875953769
2.9099999999999996705e-009  0.00024741682874955588317  0.022244856877469715295
2.9159999999999998565e-009  0.00024591317012665609137  0.022177158074318543274
2.921999999999999629e-009  0.00024441865152817726474  0.022109665376399401798
2.9279999999999998151e-009  0.00024293321734284860662  0.022042378154039941884
2.9339999999999995876e-009  0.00024145681229878650296  0.021975295779524173234
2.9399999999999997737e-009  0.00023998938147350504235  0.021908417627638242936
2.9459999999999995461e-009  0.00023853087027559579107  0.021841743074928601787
2.9519999999999997322e-009  0.00023708122443754105061  0.021775271499457408281
2.9579999999999999183e-009  0.00023564039003587055839  0.021709002281812519314
2.9639999999999996908e-009  0.00023420831346847545179  0.02164293480415608803
2.9699999999999998769e-009  0.00023278494146733834662  0.021577068450896581819
2.9759999999999996493e-009  0.00023137022107983865591  0.021511402607911862123
2.9819999999999998354e-009  0.00022996409968647953939  0.021445936663455834187
2.9879999999999996079e-009  0.00022856652498305117852  0.021380670007417969941
2.993999999999999794e-009  0.00022717744498465956338  0.021315602031594584054
2.9999999999999995665e-009  0.00022579680802647388743  0.021250732129810205595
3.0059999999999997525e-009  0.00022442456275814792071  0.021186059697742187086
3.0119999999999999386e-009  0.00022306065814337499914  0.021121584132984674159
3.0179999999999997111e-009  0.00022170504345132258333  0.021057304834727667842
3.0239999999999998972e-009  0.00022035766826813979078  0.020993221204385941608
3.0299999999999996697e-009  0.00021901848248542405968  0.020929332645138212093
3.0359999999999998557e-009  0.00021768743629877089301  0.020865638561940579726
3.0419999999999996282e-009  0.00021636448020799769207  0.020802138361620311352
3.0479999999999998143e-009  0.00021504956501211072739  0.020738831452717421816
3.0539999999999995868e-009  0.00021374264181796409222  0.020675717245985159032
3.0599999999999997729e-009  0.00021244366201990879414  0.020612795153491861311
3.0659999999999995453e-009  0.00021115257731915752738  0.020550064589638521867
3.0719999999999997314e-009  0.00020986933970352039214  0.020487524970260337365
3.0779999999999999175e-009  0.00020859390145681322155  0.020425175713164045455
3.08399999999999969e-009  0.00020732621515273132445  0.020363016237911875372
3.0899999999999998761e-009  0.00020606623365613908959  0.020301045965966338369
3.0959999999999996485e-009  0.00020481391011558131997  0.020239264320403609759
3.1019999999999998346e-009  0.00020356919797080128042  0.020177670726364890091
3.1079999999999996071e-009  0.00020233205093557441617  0.020116264610288581843
3.1139999999999997932e-009  0.00020110242301601039027  0.020055045400896524821
3.1199999999999995657e-009  0.00019988026849376312874  0.019994012528442763749
3.1259999999999997517e-009  0.00019866554192345440384  0.019933165424661201254
3.1319999999999995242e-009  0.0001974581981483213922  0.019872503523628893413
3.1379999999999997103e-009  0.00019625819228061118244  0.01981202626086545418
3.1439999999999998964e-009  0.00019506547970451457207  0.019751733073556588388
3.1499999999999996689e-009  0.0001938800160761856644  0.019691623400633358199
3.1559999999999998549e-009  0.00019270175732795665033  0.019631696683066222203
3.1619999999999996274e-009  0.00019153065964948480645  0.019571952362985395313
3.1679999999999998135e-009  0.00019036667950803683354  0.019512389884790475036
3.173999999999999586e-009  0.00018920977363055121946  0.019453008694315192945
3.1799999999999997721e-009  0.00018805989900517753525  0.019393808238980684427
3.1859999999999995445e-009  0.00018691701289076179462  0.019334787968362198568
3.1919999999999997306e-009  0.00018578107279779634419  0.019275947333285404356
3.1979999999999999167e-009  0.00018465203649567724174  0.019217285786274670989
3.2039999999999996892e-009  0.00018352986201894058715  0.019158802781955901889
3.2099999999999998753e-009  0.00018241450765318516008  0.019100497776402852734
3.2159999999999996477e-009  0.0001813059319328311843  0.019042370227092590695
3.2219999999999998338e-009  0.00018020409364828446461  0.018984419593355204153
3.2279999999999996063e-009  0.00017910895184607725185  0.018926645336460302949
3.2339999999999997924e-009  0.00017802046581259013984  0.018869046918834567889
3.2399999999999995649e-009  0.00017693859509361353917  0.018811623805169694346
3.2459999999999997509e-009  0.000175863299466703666  0.018754375461033281208
3.2519999999999995234e-009  0.0001747945389686875585  0.018697301354403398493
3.2579999999999997095e-009  0.0001737322738671846366  0.018640400954227601127
3.2639999999999998956e-009  0.00017267646468309912652  0.018583673731697891718
3.2699999999999996681e-009  0.00017162707216744401968  0.01852711915908374779
3.2759999999999998541e-009  0.00017058405731587894982  0.018470736710585147766
3.2819999999999996266e-009  0.0001695473813604318758  0.018414525861961902192
3.2879999999999998127e-009  0.00016851700576772456783  0.01835848609050999905
3.2939999999999995852e-009  0.00016749289224346331872  0.018302616875379505712
3.2999999999999997713e-009  0.00016647500271696529179  0.018246917696803768849
3.3059999999999995437e-009  0.00016546329935909463997  0.018191388037150691553
3.3119999999999997298e-009  0.00016445774456599803674  0.018136027380107146156
3.3179999999999999159e-009  0.00016345830096012428688  0.018080835210803967994
3.3239999999999996884e-009  0.00016246493139782382481  0.018025811016307912577
3.3299999999999998745e-009  0.00016147759895849937446  0.017970954285095680492
3.3359999999999996469e-009  0.00016049626694253878233  0.01791626450700808254
3.341999999999999833e-009  0.00015952089887813361915  0.017861741173700484975
3.3479999999999996055e-009  0.00015855145851731723412  0.017807383778495774335
3.3539999999999997916e-009  0.00015758790982546387735  0.017753191815865893705
3.3599999999999995641e-009  0.00015663021699211041992  0.017699164782108246091
3.3659999999999997501e-009  0.00015567834442484264628  0.017645302175074397549
3.3719999999999995226e-009  0.00015473225674104775537  0.017591603493772121208
3.3779999999999997087e-009  0.00015379191878634547236  0.017538068239480966715
3.3839999999999998948e-009  0.00015285729560840464743  0.017484695914336323419
3.3899999999999996673e-009  0.00015192835247334468681  0.017431486022330092145
3.3959999999999998533e-009  0.00015100505485618787873  0.017378438068836214031
3.4019999999999996258e-009  0.00015008736844018442328  0.017325551560639241427
3.4079999999999998119e-009  0.00014917525912387042601  0.017272826006410786637
3.4139999999999995844e-009  0.00014826869300663673328  0.01722026091594646563
3.4199999999999997705e-009  0.00014736763639413441194  0.01716785580054389776
3.4259999999999995429e-009  0.000146472055804835853  0.017115610173454864906
3.431999999999999729e-009  0.00014558191795036392897  0.017063523548808079422
3.4379999999999995015e-009  0.00014469718975552975761  0.017011595442846021153
3.4439999999999996876e-009  0.00014381783833464082453  0.016959825372605746158
3.4499999999999998737e-009  0.0001429438310098415097  0.016908212857061004353
3.4559999999999996461e-009  0.00014207513529859404897  0.016856757416454332815
3.4619999999999998322e-009  0.00014121171891895962862  0.016805458572675704282
3.4679999999999996047e-009  0.00014035354978337289647  0.016754315848961000984
3.4739999999999997908e-009  0.00013950059600075897506  0.016703328770084062416
3.4799999999999995633e-009  0.00013865282586929053034  0.01665249686198982948
3.4859999999999997493e-009  0.00013781020788655905175  0.016601819652469367028
3.4919999999999995218e-009  0.00013697271073748331456  0.016551296670501879776
3.4979999999999997079e-009  0.00013614030329878249988  0.016500927446588115749
3.503999999999999894e-009  0.00013531295463384962604  0.016450711512506054762
3.5099999999999996665e-009  0.00013449063400222606608  0.016400648401952044875
3.5159999999999998525e-009  0.00013367331083838230178  0.016350737649316150063
3.521999999999999625e-009  0.00013286095477105792201  0.016300978790922827921
3.5279999999999998111e-009  0.00013205353561495186362  0.016251371364592703816
3.5339999999999995836e-009  0.00013125102335956252871  0.016201914909020016797
3.5399999999999997697e-009  0.00013045338818277001894  0.016152608964670075314
3.5459999999999995421e-009  0.00012966060044726539701  0.016103453073627743003
3.5519999999999997282e-009  0.00012887263068828068934  0.016054446778900898635
3.5579999999999995007e-009  0.00012808944962208615795  0.016005589625008267984
3.5639999999999996868e-009  0.00012731102814785686295  0.015956881158162260215
3.5699999999999998729e-009  0.00012653733734007953393  0.015908320925860124778
3.5759999999999996453e-009  0.00012576834843991643886  0.015859908476401521349
3.5819999999999998314e-009  0.00012500403287949105199  0.015811643360479077369
3.5879999999999996039e-009  0.00012424436224922643626  0.015763525129185187307
3.59399999999999979e-009  0.00012348930832361176878  0.01571555333569974941
3.5999999999999995625e-009  0.0001227388430430576753  0.015667727534205953127
3.6059999999999997485e-009  0.00012199293851776172269  0.015620047280194879202
3.611999999999999521e-009  0.00012125156703439747205  0.015572512130956743873
3.6179999999999997071e-009  0.0001205147010340945358  0.015525121644231618806
3.6239999999999994796e-009  0.00011978231314182926574  0.015477875380156623508
3.6299999999999996657e-009  0.00011905437613993913055  0.015430772899627492878
3.6359999999999998517e-009  0.00011833086297742717618  0.015383813764956150161
3.6419999999999996242e-009  0.00011761174676839771186  0.01533699753983143281
3.6479999999999998103e-009  0.00011689700078966236462  0.015290323789224501486
3.6539999999999995828e-009  0.00011618659848288671822  0.015243792079590085323
3.6599999999999997689e-009  0.00011548051344647808217  0.015197401978396049213
3.6659999999999995414e-009  0.00011477871944744692096  0.015151153054962313016
3.6719999999999997274e-009  0.00011408119039925973428  0.015105044879063401694
3.6779999999999994999e-009  0.00011338790038756905846  0.015059077022684295988
3.683999999999999686e-009  0.00011269882364888468887  0.015013249058673787395
3.6899999999999998721e-009  0.000112013934576721025  0.014967560561208431702
3.6959999999999996445e-009  0.00011133320771940260455  0.014922011105705733011
3.7019999999999998306e-009  0.00011065661778411588895  0.014876600269155307657
3.7079999999999996031e-009  0.00010998413962591546689  0.014831327629441368871
3.7139999999999997892e-009  0.00010931574825722178729  0.014786192766038307525
3.7199999999999995617e-009  0.00010865141883866995091  0.014741195259453688041
3.7259999999999997477e-009  0.00010799112668966418806  0.014696334692001551681
3.7319999999999999338e-009  0.00010733484726886568898  0.014651610646537511704
3.7379999999999992927e-009  0.00010668255619062137025  0.014607022707630831423
3.7439999999999994788e-009  0.0001060342292162868693  0.014562570461033784441
3.7499999999999996649e-009  0.00010538984225426249926  0.014518253493741077598
3.7559999999999998509e-009  0.000104749371359681717  0.014474071394026058121
3.762000000000000037e-009  0.00010411279273319108403  0.014430023751414347566
3.7679999999999993959e-009  0.00010348008272156425011  0.014386110156784164341
3.773999999999999582e-009  0.00010285121780934375747  0.014342330201842638446
3.7799999999999997681e-009  0.00010222617463442969959  0.014298683480266964618
3.7859999999999999541e-009  0.00010160492996576026752  0.014255169586206982088
3.791999999999999313e-009  0.00010098746071856455001  0.014211788115403673968
3.7979999999999994991e-009  0.00010037374395369264566  0.01416853866520416047
3.8039999999999996852e-009  9.9763756860884824132e-005  0.014125420833439605167
3.8099999999999998713e-009  9.9157476773888177644e-005  0.014082434219543735199
3.8160000000000000573e-009  9.8554881164906739084e-005  0.014039578424219635588
3.8219999999999994162e-009  9.7955947645041749425e-005  0.013996853049528079627
3.8279999999999996023e-009  9.7360653954168462033e-005  0.013954257698220172076
3.8339999999999997884e-009  9.6768977971257977744e-005  0.013911791974527076832
3.8399999999999999745e-009  9.6180897715837570324e-005  0.013869455484325082795
3.8459999999999993334e-009  9.5596391330286166433e-005  0.013827247833917361355
3.8519999999999995194e-009  9.5015437096724182598e-005  0.01378516863130256967
3.8579999999999997055e-009  9.4438013429508013696e-005  0.01374321748569148037
3.8639999999999998916e-009  9.3864098870510460242e-005  0.013701394007217692142
3.8699999999999992505e-009  9.3293672092607590339e-005  0.013659697807243584636
3.8759999999999994366e-009  9.272671190322515143e-005  0.013618128498675958343
3.8819999999999996226e-009  9.2163197231481843439e-005  0.013576685695079034055
3.8879999999999998087e-009  9.1603107138489130992e-005  0.013535369011481670001
3.8939999999999999948e-009  9.1046420813559923941e-005  0.013494178064154921728
3.8999999999999993537e-009  9.0493117569322688038e-005  0.013453112470303865006
3.9059999999999995398e-009  8.9943176847537728807e-005  0.013412171848551429285
3.9119999999999997258e-009  8.9396578209228783366e-005  0.013371355818257832718
3.9179999999999999119e-009  8.8853301350395047921e-005  0.013330664000746178174
3.9239999999999992708e-009  8.8313326079695220628e-005  0.013290096017688903668
3.9299999999999994569e-009  8.7776632330487160149e-005  0.013249651492057227739
3.935999999999999643e-009  8.7243200164308377909e-005  0.013209330048439880609
3.941999999999999829e-009  8.6713009756931991984e-005  0.013169131312044238258
3.9480000000000000151e-009  8.6186041407689578295e-005  0.013129054909450991323
3.953999999999999374e-009  8.5662275534858906803e-005  0.013089100468317821369
3.9599999999999995601e-009  8.5141692680099792068e-005  0.013049267617770723277
3.9659999999999997462e-009  8.4624273493937276678e-005  0.013009555987345400654
3.9719999999999999322e-009  8.4109998752945571614e-005  0.012969965208353148936
3.9779999999999992911e-009  8.3598849347755845095e-005  0.012930494913015190203
3.9839999999999994772e-009  8.3090806282494510983e-005  0.012891144734467493982
3.9899999999999996633e-009  8.2585850681596558527e-005  0.012851914307339319665
3.9959999999999998493e-009  8.2083963782037176033e-005  0.012812803267204034285
4.0020000000000000354e-009  8.1585126932022888446e-005  0.012773811250525263228
4.0079999999999993943e-009  8.1089321598415767256e-005  0.012734937895287574972
4.0139999999999995804e-009  8.059652935547874787e-005  0.012696182840167255512
4.0199999999999997665e-009  8.0106731894682699051e-005  0.012657545725351554075
4.0259999999999999525e-009  7.9619911012438973489e-005  0.012619026191623422192
4.0319999999999993114e-009  7.9136048622936076922e-005  0.012580623881424647659
4.0379999999999994975e-009  7.8655126744798953427e-005  0.012542338437851128716
4.0439999999999996836e-009  7.8177127509235314626e-005  0.012504169505347832031
4.0499999999999998697e-009  7.7702033152974000541e-005  0.012466116729196306812
4.0560000000000000557e-009  7.7229826024887774359e-005  0.012428179756093631417
4.0619999999999994146e-009  7.6760488574101914971e-005  0.012390358233247489653
4.0679999999999996007e-009  7.6294003367221891344e-005  0.012352651809811680469
4.0739999999999997868e-009  7.5830353064762793733e-005  0.012315060135034890457
4.0799999999999999729e-009  7.5369520442014940019e-005  0.012277582859994464956
4.0859999999999993318e-009  7.4911488373694053058e-005  0.012240219636403102191
4.0919999999999995178e-009  7.4456239840664913349e-005  0.012202970117202198083
4.0979999999999997039e-009  7.4003757927594942243e-005  0.012165833956420327513
4.10399999999999989e-009  7.3554025820048336837e-005  0.012128810808982745661
4.1099999999999992489e-009  7.3107026807778954596e-005  0.012091900331029772214
4.115999999999999435e-009  7.2662744279681143185e-005  0.01205510217954880274
4.121999999999999621e-009  7.2221161728737307342e-005  0.012018416012831083933
4.1279999999999998071e-009  7.1782262745783841258e-005  0.011981841490003433681
4.1339999999999999932e-009  7.1346031021885246729e-005  0.011945378271271718182
4.1399999999999993521e-009  7.0912450348851839696e-005  0.011909026018012710754
4.1459999999999995382e-009  7.0481504614911479642e-005  0.011872784392459208302
4.1519999999999997242e-009  7.0053177807602275205e-005  0.011836653057989178495
4.1579999999999999103e-009  6.9627454010540591051e-005  0.01180063167890097256
4.1639999999999992692e-009  6.9204317403650952942e-005  0.011764719920478425991
4.1699999999999994553e-009  6.8783752266425376314e-005  0.011728917449315206731
4.1759999999999996414e-009  6.8365742970539041456e-005  0.011693223932734636908
4.1819999999999998274e-009  6.795027398213588656e-005  0.011657639039028090677
4.1880000000000000135e-009  6.7537329866084805981e-005  0.011622162437867129825
4.1939999999999993724e-009  6.7126895275930722399e-005  0.011586793799488339859
4.1999999999999995585e-009  6.6718954961505008445e-005  0.011551532795391701927
4.2059999999999997446e-009  6.631349376649718554e-005  0.011516379098179877621
4.2119999999999999306e-009  6.5910496621129579685e-005  0.011481332380967775031
4.2179999999999992895e-009  6.5509948554193768054e-005  0.011446392318472555297
4.2239999999999994756e-009  6.511183468103520658e-005  0.011411558586015778036
4.2299999999999996617e-009  6.471614020752638368e-005  0.011376830859912296853
4.2359999999999998478e-009  6.4322850431958387128e-005  0.011342208817682592967
4.2420000000000000338e-009  6.393195073974311277e-005  0.011307692137632958246
4.2479999999999993927e-009  6.3543426606465307194e-005  0.011273280499168402899
4.2539999999999995788e-009  6.3157263594978383129e-005  0.011238973582581140639
4.2599999999999997649e-009  6.2773447356522340309e-005  0.011204771069193902866
4.265999999999999951e-009  6.2391963628621741403e-005  0.011170672641217425924
4.2719999999999993098e-009  6.2012798238490974201e-005  0.011136677982099597167
4.2779999999999994959e-009  6.1635937094664929124e-005  0.011102786775820288126
4.283999999999999682e-009  6.1261366194087323294e-005  0.011068998707569471796
4.2899999999999998681e-009  6.0889071620577564124e-005  0.01103531346365635088
4.295999999999999227e-009  6.0519039538216336791e-005  0.011001730730954683429
4.301999999999999413e-009  6.0151256198587627522e-005  0.010968250197601040266
4.3079999999999995991e-009  5.9785707934785999366e-005  0.010934871552495346869
4.3139999999999997852e-009  5.942238116484216962e-005  0.010901594485655955249
4.3199999999999999713e-009  5.9061262389623852122e-005  0.01086841868807269032
4.3259999999999993302e-009  5.8702338187534130597e-005  0.010835343851261400663
4.3319999999999995162e-009  5.8345595223613119058e-005  0.010802369668143478945
4.3379999999999997023e-009  5.7991020241337456369e-005  0.0107694958323347207
4.3439999999999998884e-009  5.7638600066515031505e-005  0.010736722038547429764
4.3499999999999992473e-009  5.7288321604045990541e-005  0.010704047982333224701
4.3559999999999994334e-009  5.6940171836586159324e-005  0.01067147335999918574
4.3619999999999996194e-009  5.6594137830415226743e-005  0.010638997869199450994
4.3679999999999998055e-009  5.6250206724956006274e-005  0.010606621207996070125
4.3739999999999999916e-009  5.5908365742392169835e-005  0.010574343075803070355
4.3799999999999993505e-009  5.5568602179856347516e-005  0.010542163172694334755
4.3859999999999995366e-009  5.5230903413196049615e-005  0.010510081199800127075
4.3919999999999997226e-009  5.4895256893485029311e-005  0.010478096859018343548
4.3979999999999999087e-009  5.4561650149086038278e-005  0.010446209853251660002
4.4039999999999992676e-009  5.4230070785220947302e-005  0.010414419886409511176
4.4099999999999994537e-009  5.3900506479311380672e-005  0.010382726663002486353
4.4159999999999996398e-009  5.3572944985009007357e-005  0.010351129888568590814
4.4219999999999998258e-009  5.3247374133953053062e-005  0.010319629269886883977
4.4280000000000000119e-009  5.2923781825757598295e-005  0.010288224514050769293
4.4339999999999993708e-009  5.2602156037236912349e-005  0.010256915329399663925
4.4399999999999995569e-009  5.228248481844774946e-005  0.010225701425178397933
4.445999999999999743e-009  5.1964756291780231725e-005  0.010194582511489152024
4.451999999999999929e-009  5.1648958649193004822e-005  0.01016355829905973493
4.4579999999999992879e-009  5.1335080155420308027e-005  0.010132628499596766161
4.463999999999999474e-009  5.1023109151422305334e-005  0.010101792826169254599
4.4699999999999996601e-009  5.0713034042078055871e-005  0.010071050992034352028
4.4759999999999998462e-009  5.0404843305454954581e-005  0.010040402711590302662
4.4819999999999992051e-009  5.0098525492009681999e-005  0.010009847700340867432
4.4879999999999993911e-009  4.9794069218544176943e-005  0.0099793856743332822606
4.4939999999999995772e-009  4.9491463173319736842e-005  0.0099490163507072130328
4.4999999999999997633e-009  4.9190696108419077707e-005  0.0099187394469679533021
4.5059999999999999494e-009  4.8891756852744454505e-005  0.0098885546823329496108
4.5119999999999993083e-009  4.8594634296466332761e-005  0.0098584617762069084307
4.5179999999999994943e-009  4.8299317399455750626e-005  0.0098284604490688921158
4.5239999999999996804e-009  4.8005795187117987423e-005  0.0097985504220897880895
4.5299999999999998665e-009  4.7714056754950698661e-005  0.0097687314176356284529
4.5359999999999992254e-009  4.7424091260528199307e-005  0.0097390031584888812899
4.5419999999999994114e-009  4.7135887932097547161e-005  0.0097093653687661332641
4.5479999999999995975e-009  4.6849436057026104432e-005  0.0096798177727709430046
4.5539999999999997836e-009  4.6564724994180355057e-005  0.0096503600963052521555
4.5599999999999999697e-009  4.6281744164314811581e-005  0.0096209920657190865084
4.5659999999999993286e-009  4.6000483051941572731e-005  0.0095917134081395048067
4.5719999999999995146e-009  4.5720931205490792108e-005  0.0095625238515248470184
4.5779999999999997007e-009  4.5443078237437428202e-005  0.0095334231247162660311
4.5839999999999998868e-009  4.5166913825409292233e-005  0.0095044109575932473472
4.5899999999999992457e-009  4.4892427705290763394e-005  0.0094754870803870298174
4.5959999999999994318e-009  4.4619609679606294056e-005  0.0094466512245987253882
4.6019999999999996178e-009  4.4348449610190444144e-005  0.0094179031222656403588
4.6079999999999998039e-009  4.4078937421837956169e-005  0.0093892425063833509502
4.61399999999999999e-009  4.3811063099795189227e-005  0.0093606691106774188998
4.6199999999999993489e-009  4.3544816689812926422e-005  0.0093321826696451809502
4.625999999999999535e-009  4.3280188300475979746e-005  0.0093037829188428490534
4.631999999999999721e-009  4.3017168098014544068e-005  0.0092754695943671281594
4.6379999999999999071e-009  4.2755746308591884052e-005  0.0092472424331356082444
4.643999999999999266e-009  4.2495913218970908422e-005  0.0092191011729963034255
4.6499999999999994521e-009  4.2237659174545455335e-005  0.0091910455525522731512
4.6559999999999996382e-009  4.198097457923528062e-005  0.0091630753111862257854
4.6619999999999998242e-009  4.1725849894477858178e-005  0.0091351901889865274459
4.6679999999999991831e-009  4.1472275640833249923e-005  0.0091073899269585728566
4.6739999999999993692e-009  4.1220242398083764286e-005  0.0090796742670740965969
4.6799999999999995553e-009  4.0969740797194136321e-005  0.0090520429514219756528
4.6859999999999997414e-009  4.072076153274469066e-005  0.0090244957236118947957
4.6919999999999999274e-009  4.0473295353748806405e-005  0.008997032327801074772
4.6979999999999992863e-009  4.0227333063113092869e-005  0.0089696525086664403992
4.7039999999999994724e-009  3.9982865523333069508e-005  0.0089423560120734484069
4.7099999999999996585e-009  3.9739883649822266461e-005  0.0089151425843698381413
4.7159999999999998446e-009  3.9498378413167270203e-005  0.008888011972670521732
4.7219999999999992035e-009  3.9258340840614239264e-005  0.0088609639250607757227
4.7279999999999993895e-009  3.9019762013144329853e-005  0.0088339981903036782218
4.7339999999999995756e-009  3.8782633063822469503e-005  0.008807114517686535568
4.7399999999999997617e-009  3.8546945183462367633e-005  0.0087803126576976031625
4.7459999999999999478e-009  3.8312689613716231025e-005  0.0087535923612784508757
4.7519999999999993067e-009  3.8079857651915658768e-005  0.0087269533804089569062
4.7579999999999994927e-009  3.7848440643980228205e-005  0.0087003954673313815826
4.7639999999999996788e-009  3.7618429991071657028e-005  0.0086739183753447492847
4.7699999999999998649e-009  3.7389817149089371433e-005  0.0086475218587858306701
4.7759999999999992238e-009  3.716259362083104001e-005  0.0086212056721587434355
4.7819999999999994099e-009  3.6936750965456838789e-005  0.0085949695712616500098
4.7879999999999995959e-009  3.671228078941373037e-005  0.0085688133121703292938
4.793999999999999782e-009  3.6489174750985460646e-005  0.0085427366517978834543
4.7999999999999999681e-009  3.6267424563235280013e-005  0.0085167393482758740192
4.805999999999999327e-009  3.6047021984324200924e-005  0.008490821159855410985
4.8119999999999995131e-009  3.5827958824185285477e-005  0.0084649818457200824012
4.8179999999999996991e-009  3.5610226945389252104e-005  0.0084392211661253723615
4.8239999999999998852e-009  3.5393818255195999708e-005  0.0084135388814928525891
4.8299999999999992441e-009  3.5178724713298291284e-005  0.0083879347533583371865
4.8359999999999994302e-009  3.4964938327135771149e-005  0.0083624085438509607876
4.8419999999999996162e-009  3.475245115352484606e-005  0.0083369600159200526329
4.8479999999999998023e-009  3.4541255295634642076e-005  0.0083115889330060890167
4.8539999999999999884e-009  3.4331342908065238119e-005  0.0082862950596832157801
4.8599999999999993473e-009  3.4122706187958651508e-005  0.0082610781606226972584
4.8659999999999995334e-009  3.3915337385660407788e-005  0.008235938001910943565
4.8719999999999997194e-009  3.370922879456665145e-005  0.0082108743498566158503
4.8779999999999999055e-009  3.3504372755713919324e-005  0.0081858869715766193614
4.8839999999999992644e-009  3.3300761659240109779e-005  0.0081609756352093235088
4.8899999999999994505e-009  3.3098387936663384388e-005  0.0081361401090029646793
4.8959999999999996366e-009  3.2897244071079760207e-005  0.0081113801625962225761
4.9019999999999998226e-009  3.2697322585623193891e-005  0.0080866955656341103775
4.9079999999999991815e-009  3.2498616053603447988e-005  0.008062086089047107787
4.9139999999999993676e-009  3.2301117091000775938e-005  0.0080375515041585608028
4.9199999999999995537e-009  3.2104818359504534188e-005  0.0080130915830913269221
4.9259999999999997398e-009  3.1909712565488875414e-005  0.0079887060986731615875
4.9319999999999999258e-009  3.1715792457656777196e-005  0.0079643948241729933812
4.9379999999999992847e-009  3.1523050831731825282e-005  0.0079401575339198178505
4.9439999999999994708e-009  3.1331480526160246434e-005  0.0079159940027971522486
4.9499999999999996569e-009  3.1141074421253575567e-005  0.0078919040061639841865
4.955999999999999843e-009  3.0951825443863979455e-005  0.0078678873204773309286
4.9619999999999992019e-009  3.0763726559973321537e-005  0.0078439437223852288145
4.9679999999999993879e-009  3.0576770780763440469e-005  0.007820072989526817217
4.973999999999999574e-009  3.0390951162152514783e-005  0.0077962749005088980911
4.9799999999999997601e-009  3.020626079583383039e-005  0.007772549233788594511
4.9859999999999999462e-009  3.0022692820498448745e-005  0.0077488957691400715128
4.9919999999999993051e-009  2.9840240415776542806e-005  0.0077253142869111212157
4.9979999999999994911e-009  2.965889680140256136e-005  0.0077018045679441331577
5.0039999999999996772e-009  2.9478655240014069828e-005  0.007678366393968715127
5.0099999999999998633e-009  2.9299509032676353433e-005  0.0076549995470511101453
5.0159999999999992222e-009  2.9121451525015166128e-005  0.0076317038104233535234
5.0219999999999994083e-009  2.8944476098093050733e-005  0.0076084789673223187159
5.0279999999999995943e-009  2.8768576178312373813e-005  0.0075853248023156358629
5.0339999999999997804e-009  2.8593745228726780193e-005  0.0075622411001933518074
5.0399999999999999665e-009  2.8419976753024992194e-005  0.0075392276465199000238
5.0459999999999993254e-009  2.8247264294381399475e-005  0.0075162842275131400843
5.0519999999999995115e-009  2.8075601435311612817e-005  0.007493410630055130292
5.0579999999999996975e-009  2.7904981797543169616e-005  0.0074706066417049655018
5.0639999999999998836e-009  2.7735399040543458392e-005  0.0074478720505314083972
5.0699999999999992425e-009  2.7566846863054271434e-005  0.0074252066453472220092
5.0759999999999994286e-009  2.7399319003812040306e-005  0.007402610215837659817
5.0819999999999996147e-009  2.7232809235085452183e-005  0.0073800825517178940752
5.0879999999999998007e-009  2.7067311372333888723e-005  0.0073576234440658741173
5.0939999999999991596e-009  2.6902819262978818507e-005  0.0073352326838320288868
5.0999999999999993457e-009  2.6739326799226212285e-005  0.0073129100636102747565
5.1059999999999995318e-009  2.6576827902706606755e-005  0.0072906553755758621294
5.1119999999999997179e-009  2.6415316535617924625e-005  0.0072684684130314451342
5.1179999999999999039e-009  2.625478669883866468e-005  0.0072463489701833526044
5.1239999999999992628e-009  2.6095232425035581138e-005  0.0072242968412206849671
5.1299999999999994489e-009  2.5936647786828888134e-005  0.0072023118214680050334
5.135999999999999635e-009  2.5779026892098328393e-005  0.0071803937067682196624
5.141999999999999821e-009  2.5622363881063030526e-005  0.0071585422931017220899
5.1479999999999991799e-009  2.5466652935735297972e-005  0.0071367573779322632591
5.153999999999999366e-009  2.5311888270720807965e-005  0.0071150387589556827669
5.1599999999999995521e-009  2.5158064131176672608e-005  0.0070933862338345395407
5.1659999999999997382e-009  2.5005174805521706948e-005  0.007071799602013861645
5.1719999999999999242e-009  2.485321461068077623e-005  0.0070502786626743729412
5.1779999999999992831e-009  2.470217790126097825e-005  0.0070288232160527382153
5.1839999999999994692e-009  2.4552059064416983838e-005  0.0070074330627437298943
5.1899999999999996553e-009  2.4402852521568968756e-005  0.0069861080039703036745
5.1959999999999998414e-009  2.4254552730242091429e-005  0.0069648478418759575403
5.2019999999999992003e-009  2.4107154179020873533e-005  0.0069436523788307365559
5.2079999999999993863e-009  2.3960651390773312329e-005  0.0069225214179189521052
5.2139999999999995724e-009  2.3815038921670046994e-005  0.0069014547628264647644
5.2199999999999997585e-009  2.3670311361267723613e-005  0.0068804522178804094698
5.2259999999999999446e-009  2.3526463331878338486e-005  0.006859513587985425348
5.2319999999999993035e-009  2.3383489489324517081e-005  0.0068386386787612218896
5.2379999999999994895e-009  2.3241384519534550007e-005  0.0068178272960723422524
5.2439999999999996756e-009  2.3100143142670506334e-005  0.0067970792466574211921
5.2499999999999998617e-009  2.2959760111655910764e-005  0.0067763943379434334741
5.2559999999999992206e-009  2.282023020940152777e-005  0.006755772377663641845
5.2619999999999994067e-009  2.2681548251033586792e-005  0.006735213174211131075
5.2679999999999995927e-009  2.2543709083422970834e-005  0.0067147165365967565256
5.2739999999999997788e-009  2.2406707584876134142e-005  0.0066942822744303414825
5.2799999999999991377e-009  2.2270538665089237063e-005  0.0066739101979408198967
5.2859999999999993238e-009  2.2135197265298819653e-005  0.0066536001180261530527
5.2919999999999995099e-009  2.2000678354735976074e-005  0.0066333518457467599561
5.2979999999999996959e-009  2.1866976935407991101e-005  0.0066131651930687457286
5.303999999999999882e-009  2.1734088040828495437e-005  0.0065930399727028039109
5.3099999999999992409e-009  2.1602006730269652596e-005  0.0065729759972587235156
5.315999999999999427e-009  2.1470728099151123035e-005  0.0065529730808467573713
5.3219999999999996131e-009  2.1340247267807126559e-005  0.006533031037398663067
5.3279999999999997991e-009  2.1210559387890804225e-005  0.0065131496816656694188
5.333999999999999158e-009  2.1081659640127338088e-005  0.0064933288289023742904
5.3399999999999993441e-009  2.0953543236515505027e-005  0.0064735682952318509761
5.3459999999999995302e-009  2.0826205414239695203e-005  0.0064538678967328878822
5.3519999999999997163e-009  2.0699641443134054477e-005  0.0064342274506165933468
5.3579999999999999023e-009  2.0573846620448007144e-005  0.0064146467744448732243
5.3639999999999992612e-009  2.0448816272464451395e-005  0.0063951256864059292592
5.3699999999999994473e-009  2.0324545751858337891e-005  0.0063756640049265986964
5.3759999999999996334e-009  2.0201030442756576927e-005  0.00635626154948906643
5.3819999999999998195e-009  2.0078265753974351601e-005  0.0063369181395966211329
5.3879999999999991783e-009  1.9956247124745407509e-005  0.0063176335956979029138
5.3939999999999993644e-009  1.9834970021092516567e-005  0.006298407738641967693
5.3999999999999995505e-009  1.9714429936237518883e-005  0.0062792403897665074325
5.4059999999999997366e-009  1.9594622391638185955e-005  0.0062601313710877000071
5.4119999999999999227e-009  1.9475542935921701153e-005  0.0062410805051564110374
5.4179999999999992815e-009  1.935718714370985891e-005  0.0062220876148941939993
5.4239999999999994676e-009  1.9239550616992399891e-005  0.0062031525238369564224
5.4299999999999996537e-009  1.9122628985449496766e-005  0.0061842750562130554062
5.4359999999999998398e-009  1.9006417904204287811e-005  0.0061654550366058609445
5.4419999999999991987e-009  1.8890913054856497662e-005  0.006146692290143781004
5.4479999999999993847e-009  1.8776110146444192401e-005  0.006127986642681948655
5.4539999999999995708e-009  1.8662004912556145987e-005  0.0061093379203570243735
5.4599999999999997569e-009  1.854859311234845597e-005  0.0060907459497746996996
5.4659999999999991158e-009  1.8435870533118825705e-005  0.0060722105584570806869
5.4719999999999993019e-009  1.8323832986067930157e-005  0.0060537315741727316248
5.4779999999999994879e-009  1.8212476307778345601e-005  0.0060353088252016314982
5.483999999999999674e-009  1.810179636089140348e-005  0.0060169421404715874371
5.4899999999999998601e-009  1.7991789032385480747e-005  0.0059986313492971848546
5.495999999999999219e-009  1.7882450235672857027e-005  0.0059803762817523201806
5.5019999999999994051e-009  1.7773775906272219906e-005  0.0059621767679719495092
5.5079999999999995911e-009  1.7665762007070325175e-005  0.0059440326390541170509
5.5139999999999997772e-009  1.7558404525260660518e-005  0.0059259437265739645442
5.5199999999999991361e-009  1.7451699470584459625e-005  0.0059079098623090820289
5.5259999999999993222e-009  1.7345642878487248397e-005  0.0058899308787942914953
5.5319999999999995083e-009  1.724023080804829662e-005  0.0058720066089963315892
5.5379999999999996943e-009  1.7135459342773904983e-005  0.0058541368864716350484
5.5439999999999998804e-009  1.703132458975307247e-005  0.0058363215452462988489
5.5499999999999992393e-009  1.6927822677967201451e-005  0.005818560419548327034
5.5559999999999994254e-009  1.6824949764484717297e-005  0.0058008533448941313956
5.5619999999999996115e-009  1.6722702023949884164e-005  0.0057832001563061750937
5.5679999999999997975e-009  1.6621075658689822351e-005  0.0057656006900738141288
5.5739999999999991564e-009  1.6520066892132479543e-005  0.0057480547826429901834
5.5799999999999993425e-009  1.6419671971203069974e-005  0.0057305622710521293348
5.5859999999999995286e-009  1.6319887164634111563e-005  0.0057131229926606890562
5.5919999999999997147e-009  1.6220708765834106278e-005  0.0056957367856729666442
5.5979999999999999007e-009  1.6122133088319786216e-005  0.0056784034883618095951
5.6039999999999992596e-009  1.6024156470446640152e-005  0.005661122939920425548
5.6099999999999994457e-009  1.5926775271354105828e-005  0.0056438949797731185337
5.6159999999999996318e-009  1.5829985872104592105e-005  0.0056267194477963074911
5.6219999999999998179e-009  1.5733784676832448656e-005  0.0056095961845452737074
5.6279999999999991768e-009  1.5638168110027721045e-005  0.005592525030793821586
5.6339999999999993628e-009  1.5543132620321981421e-005  0.0055755058282315481458
5.6399999999999995489e-009  1.5448674674505324852e-005  0.0055585384184163606075
5.645999999999999735e-009  1.5354790764671048185e-005  0.0055416226440765615699
5.6519999999999990939e-009  1.5261477400289315628e-005  0.0055247583477088507004
5.6579999999999992799e-009  1.5168731116800646813e-005  0.0055079453731497101179
5.663999999999999466e-009  1.507654846614797394e-005  0.0054911835638863822073
5.6699999999999996521e-009  1.4984926022378914303e-005  0.0054744727640895088708
5.6759999999999998382e-009  1.489386038265006676e-005  0.005457812818822218616
5.6819999999999991971e-009  1.4803348161752232919e-005  0.0054412035730621640534
5.6879999999999993831e-009  1.4713385997905884317e-005  0.0054246448727830812175
5.6939999999999995692e-009  1.4623970547264008386e-005  0.005408136563968038088
5.6999999999999997553e-009  1.4535098487348824354e-005  0.0053916784932614121931
5.7059999999999991142e-009  1.4446766517129310475e-005  0.0053752705080078178046
5.7119999999999993003e-009  1.4358971352670134696e-005  0.0053589124554652197568
5.7179999999999994863e-009  1.4271709733130318271e-005  0.0053426041839406968048
5.7239999999999996724e-009  1.4184978415303900045e-005  0.0053263455417957815408
5.7299999999999998585e-009  1.4098774176601065524e-005  0.0053101363780228968622
5.7359999999999992174e-009  1.4013093814525664769e-005  0.0052939765421704818374
5.7419999999999994035e-009  1.3927934144109512324e-005  0.0052778658838794892047
5.7479999999999995895e-009  1.3843292002906862782e-005  0.005261804253848077241
5.7539999999999997756e-009  1.3759164243290454701e-005  0.0052457915023932195561
5.7599999999999991345e-009  1.3675547741725676038e-005  0.0052298274812321819682
5.7659999999999993206e-009  1.3592439389730737154e-005  0.0052139120417841224031
5.7719999999999995067e-009  1.3509836099255553648e-005  0.0051980450362142018722
5.7779999999999996927e-009  1.3427734801488441256e-005  0.0051822263172286182203
5.7839999999999998788e-009  1.3346132446182861883e-005  0.0051664557379663793302
5.7899999999999992377e-009  1.3265026000454189576e-005  0.0051507331517861004028
5.7959999999999994238e-009  1.3184412450705309495e-005  0.0051350584126580896271
5.8019999999999996099e-009  1.3104288801283713237e-005  0.0051194313749250925163
5.8079999999999997959e-009  1.3024652075337240983e-005  0.0051038518934893167822
5.8139999999999991548e-009  1.294549931371333168e-005  0.0050883198236182699409
5.8199999999999993409e-009  1.2866827575733565226e-005  0.0050728350211166070918
5.825999999999999527e-009  1.2788633937712347524e-005  0.0050573973420549719546
5.8319999999999997131e-009  1.2710915493582715375e-005  0.0050420066429116717349
5.8379999999999998991e-009  1.263366935646491443e-005  0.0050266627809044273772
5.843999999999999258e-009  1.2556892655342545353e-005  0.0050113656133518227204
5.8499999999999994441e-009  1.2480582538037208001e-005  0.0049961149982836079719
5.8559999999999996302e-009  1.2404736168747028762e-005  0.0049809107939707232202
5.8619999999999998163e-009  1.2329350728889321121e-005  0.0049657528591119642208
5.8679999999999991752e-009  1.2254423418178689192e-005  0.0049506410530715493079
5.8739999999999993612e-009  1.2179951451264476326e-005  0.0049355752352212151068
5.8799999999999995473e-009  1.2105932062374684228e-005  0.0049205552658972712826
5.8859999999999997334e-009  1.203236249996478472e-005  0.0049055810053376521992
5.8919999999999990923e-009  1.1959240031481961579e-005  0.0048906523146676379732
5.8979999999999992784e-009  1.1886561938357251855e-005  0.0048757690548993917398
5.9039999999999994644e-009  1.1814325521337567455e-005  0.0048609310880401435107
5.9099999999999996505e-009  1.1742528095568845062e-005  0.0048461382761057995167
5.9159999999999998366e-009  1.1671166993823239974e-005  0.0048313904818019504095
5.9219999999999991955e-009  1.1600239563922482369e-005  0.0048166875680123750342
5.9279999999999993816e-009  1.1529743171223151595e-005  0.0048020293983321573825
5.9339999999999995676e-009  1.1459675195238595274e-005  0.0047874158363857624576
5.9399999999999997537e-009  1.1390033033223814985e-005  0.0047728467465913493664
5.9459999999999991126e-009  1.1320814096036460096e-005  0.0047583219933158074633
5.9519999999999992987e-009  1.1252015813380769778e-005  0.0047438414419920848022
5.9579999999999994847e-009  1.1183635627709682868e-005  0.0047294049578587961727
5.9639999999999996708e-009  1.1115670999770916534e-005  0.0047150124071461182312
5.9699999999999998569e-009  1.1048119401968879179e-005  0.0047006636556913700131
5.9759999999999992158e-009  1.0980978326494385947e-005  0.0046863585706803066733
5.9819999999999994019e-009  1.0914245276370461676e-005  0.0046720970187637293411
5.9879999999999995879e-009  1.084791777307157675e-005  0.004657878867697522185
5.993999999999999774e-009  1.0781993352173809345e-005  0.0046437039854352922877
5.9999999999999991329e-009  1.0716469564016359528e-005  0.0046295722402866466838
6.005999999999999319e-009  1.0651343973433749629e-005  0.0046154835008769667243
6.0119999999999995051e-009  1.0586614160707533513e-005  0.004601437636371384296
6.0179999999999996911e-009  1.0522277721105136275e-005  0.0045874345163947867834
6.0239999999999998772e-009  1.045833226374557717e-005  0.004573474010803073829
6.0299999999999992361e-009  1.0394775412632461869e-005  0.0045595559899254366198
6.0359999999999994222e-009  1.0331604805375996088e-005  0.0045456803243026219427
6.0419999999999996083e-009  1.0268818095751619705e-005  0.0045318468852668927424
6.0479999999999997943e-009  1.0206412951064650096e-005  0.0045180555443829267456
6.0539999999999991532e-009  1.0144387051068436402e-005  0.0045043061732232270167
6.0599999999999993393e-009  1.0082738091273651192e-005  0.0044905986441172076468
6.0659999999999995254e-009  1.0021463782564689563e-005  0.0044769328300890750411
6.0719999999999997115e-009  9.9605618462921703129e-006  0.0044633086037808699514
6.0779999999999990704e-009  9.9000300200248944333e-006  0.0044497258387511682068
6.0839999999999992564e-009  9.8398660554899033314e-006  0.0044361844090366449669
6.0899999999999994425e-009  9.7800677158251511835e-006  0.0044226841885500146542
6.0959999999999996286e-009  9.720632779525636619e-006  0.0044092250519849034845
6.1019999999999998147e-009  9.6615590387956830804e-006  0.0043958068744647284254
6.1079999999999991736e-009  9.6028442978241645962e-006  0.0043824295311674244663
6.1139999999999993596e-009  9.5444863750592889937e-006  0.0043690928978586136139
6.1199999999999995457e-009  9.4864831018530487223e-006  0.004355796850601058659
6.1259999999999997318e-009  9.4288323237559039364e-006  0.0043425412660689603761
6.1319999999999990907e-009  9.3715318978867214779e-006  0.0043293260209613972089
6.1379999999999992768e-009  9.3145796948882825716e-006  0.0043161509924673126942
6.1439999999999994628e-009  9.2579735995162417745e-006  0.0043030160584214046521
6.1499999999999996489e-009  9.2017115074180063668e-006  0.00428992109657462279
6.155999999999999835e-009  9.1457913286965038106e-006  0.0042768659854375851853
6.1619999999999991939e-009  9.0902109852308081678e-006  0.0042638506036752291811
6.16799999999999938e-009  9.0349684119888565151e-006  0.0042508748304293450526
6.173999999999999566e-009  8.9800615564942518683e-006  0.0042379385452113987193
6.1799999999999997521e-009  8.9254883772985426998e-006  0.0042250416275578968339
6.185999999999999111e-009  8.8712468479726962959e-006  0.0042121839579896541705
6.1919999999999992971e-009  8.8173349522765342339e-006  0.0041993654168877786806
6.1979999999999994832e-009  8.763750687711015767e-006  0.0041865858853512172982
6.2039999999999996692e-009  8.7104920626113020656e-006  0.004173845244522442037
6.2099999999999998553e-009  8.6575570981425301645e-006  0.0041611433760788702624
6.2159999999999992142e-009  8.604943827431307731e-006  0.0041484801620427945099
6.2219999999999994003e-009  8.5526502954709063612e-006  0.0041358554847748018116
6.2279999999999995864e-009  8.5006745586471484398e-006  0.0041232692268749924699
6.2339999999999997724e-009  8.4490146871307788553e-006  0.0041107212717796321258
6.2399999999999991313e-009  8.3976687594534014307e-006  0.0040982115024613850404
6.2459999999999993174e-009  8.3466348690554383229e-006  0.0040857398030357825261
6.2519999999999995035e-009  8.2959111190286964692e-006  0.0040733060574989193164
6.2579999999999996895e-009  8.2454956249279647067e-006  0.0040609101504288334927
6.2639999999999990484e-009  8.1953865134928410548e-006  0.0040485519666895323013
6.2699999999999992345e-009  8.1455819225965075508e-006  0.0040362313914334762774
6.2759999999999994206e-009  8.0960800015425797224e-006  0.0040239483101905219875
6.2819999999999996067e-009  8.0468789114486990105e-006  0.0040117026089800571567
6.2879999999999997927e-009  7.997976823312876829e-006  0.0039994941738457070665
6.2939999999999991516e-009  7.9493719210694352792e-006  0.0039873228916327890445
6.2999999999999993377e-009  7.9010623973372642837e-006  0.0039751886489416479731
6.3059999999999995238e-009  7.8530464584172448255e-006  0.0039630913333954962893
6.3119999999999997099e-009  7.805322319160398192e-006  0.0039510308323677748726
6.3179999999999990688e-009  7.7578882068426161705e-006  0.0039390070339725509127
6.3239999999999992548e-009  7.7107423589648554967e-006  0.0039270198265261803058
6.3299999999999994409e-009  7.6638830227281536111e-006  0.0039150690984267834047
6.335999999999999627e-009  7.6173084580895939364e-006  0.0039031547389488914848
6.3419999999999998131e-009  7.5710169342802898033e-006  0.0038912766373724420876
6.347999999999999172e-009  7.5250067307589699078e-006  0.0038794346832390336731
6.353999999999999358e-009  7.4792761382119362807e-006  0.0038676287666248258118
6.3599999999999995441e-009  7.4338234580363420024e-006  0.0038558587780250308877
6.3659999999999997302e-009  7.3886469995503238669e-006  0.0038441246076448467445
6.3719999999999990891e-009  7.343745085421755972e-006  0.003832426146821815878
6.3779999999999992752e-009  7.299116047017124044e-006  0.0038207632868360540644
6.3839999999999994612e-009  7.2547582260389493913e-006  0.0038091359193494133892
6.3899999999999996473e-009  7.210669974219420476e-006  0.0037975439363408082863
6.3959999999999998334e-009  7.1668496533311654785e-006  0.0037859872301240441589
6.4019999999999991923e-009  7.1232956347841569416e-006  0.0037744656932562408932
6.4079999999999993784e-009  7.0800063010473989738e-006  0.0037629792189294371425
6.4139999999999995644e-009  7.0369800428168022871e-006  0.0037515277002354127829
6.4199999999999997505e-009  6.9942152614506309242e-006  0.0037401110308253231532
6.4259999999999991094e-009  6.9517103683348213192e-006  0.0037287291047580330486
6.4319999999999992955e-009  6.9094637834162558101e-006  0.0037173818161217327648
6.4379999999999994816e-009  6.867473937870293854e-006  0.0037060690597640767036
6.4439999999999996676e-009  6.8257392704468828037e-006  0.0036947907303247588817
6.4499999999999990265e-009  6.7842582309617990171e-006  0.0036835467231899747011
6.4559999999999992126e-009  6.7430292783692320096e-006  0.0036723369339888276876
6.4619999999999993987e-009  6.7020508796849506206e-006  0.0036611612583127093462
6.4679999999999995848e-009  6.6613215134623754576e-006  0.0036500195926768325312
6.4739999999999997708e-009  6.6208396656733407829e-006  0.0036389118334121096053
6.4799999999999991297e-009  6.5806038316553902253e-006  0.0036278378772087900572
6.4859999999999993158e-009  6.5406125170807900948e-006  0.0036167976213995691077
6.4919999999999995019e-009  6.5008642356530376823e-006  0.0036057909633402315808
6.497999999999999688e-009  6.4613575106084253642e-006  0.0035948178008373176187
6.5039999999999990468e-009  6.4220908735864899801e-006  0.0035838780318494349586
6.5099999999999992329e-009  6.3830628660141917232e-006  0.0035729715548865463061
6.515999999999999419e-009  6.3442720377047691802e-006  0.0035620982686345894867
6.5219999999999996051e-009  6.3057169464636132064e-006  0.0035512580718566801735
6.5279999999999997912e-009  6.2673961607701943126e-006  0.0035404508641612847386
6.53399999999999915e-009  6.2293082558856684454e-006  0.0035296765449218340388
6.5399999999999993361e-009  6.1914518174175711001e-006  0.0035189350142955386561
6.5459999999999995222e-009  6.1538254377115179521e-006  0.0035082261722162435755
6.5519999999999997083e-009  6.1164277196646945684e-006  0.0034975499194906979616
6.5579999999999990672e-009  6.0792572726910268228e-006  0.0034869061566641071544
6.5639999999999992532e-009  6.0423127162290467203e-006  0.0034762947850345048487
6.5699999999999994393e-009  6.005592677216602579e-006  0.0034657157059449069866
6.5759999999999996254e-009  5.9690957915850336189e-006  0.0034551688212256818564
6.5819999999999998115e-009  5.9328207029836925037e-006  0.0034446540328409449259
6.5879999999999991704e-009  5.8967660636601489449e-006  0.0034341712431560978726
6.5939999999999993564e-009  5.8609305335651003407e-006  0.0034237203546916912707
6.5999999999999995425e-009  5.8253127815191427198e-006  0.0034133012704767630441
6.6059999999999997286e-009  5.7899114838171619884e-006  0.0034029138936556009402
6.6119999999999990875e-009  5.7547253248636552272e-006  0.0033925581276858483848
6.6179999999999992736e-009  5.7197529976901483907e-006  0.0033822338765053337056
6.6239999999999994596e-009  5.6849932027057761231e-006  0.0033719410441779007481
6.6299999999999996457e-009  5.6504446480336148245e-006  0.0033616795350043747991
6.6359999999999998318e-009  5.6161060503388208348e-006  0.0033514492537822563288
6.6419999999999991907e-009  5.5819761328724916977e-006  0.0033412501052368084528
6.6479999999999993768e-009  5.5480536286235926483e-006  0.0033310819949750837196
6.6539999999999995628e-009  5.5143372763446517663e-006  0.0033209448283115609868
6.6599999999999997489e-009  5.4808258232781625218e-006  0.0033108385110959918929
6.6659999999999991078e-009  5.4475180244489140061e-006  0.0033007629495160400665
6.6719999999999992939e-009  5.4144126421564725058e-006  0.003290718049957022228
6.67799999999999948e-009  5.3815084461490748268e-006  0.0032807037190667113873
6.683999999999999666e-009  5.3488042137009903537e-006  0.0032707198637917586637
6.6899999999999990249e-009  5.3162987300275341601e-006  0.0032607663915182683381
6.695999999999999211e-009  5.2839907870041194111e-006  0.0032508432096931775407
6.7019999999999993971e-009  5.2518791841292228629e-006  0.0032409502261309792136
6.7079999999999995832e-009  5.2199627287399310313e-006  0.003231087349094707243
6.7139999999999997692e-009  5.1882402333133211734e-006  0.003221254486473653679
6.7199999999999991281e-009  5.1567105211691817562e-006  0.0032114515475619997975
6.7259999999999993142e-009  5.1253724193141078641e-006  0.0032016784408538307739
6.7319999999999995003e-009  5.09422476437342963e-006  0.0031919350758978256959
6.7379999999999996864e-009  5.0632663976984670229e-006  0.0031822213617843956787
6.7439999999999990453e-009  5.0324961699586969483e-006  0.0031725372085946281289
6.7499999999999992313e-009  5.0019129377317409044e-006  0.0031628825263457826036
6.7559999999999994174e-009  4.9715155642709911316e-006  0.0031532572252421751935
6.7619999999999996035e-009  4.9413029197337479252e-006  0.0031436612157590224786
6.7679999999999997896e-009  4.9112738827375588201e-006  0.0031340944091515681239
6.7739999999999991485e-009  4.8814273360859539662e-006  0.0031245567161074078687
6.7799999999999993345e-009  4.8517621715871953899e-006  0.00311504804829305839
6.7859999999999995206e-009  4.8222772870348916809e-006  0.0031055683174050097844
6.7919999999999997067e-009  4.792971586402416618e-006  0.0030961174352412464822
6.7979999999999990656e-009  4.7638439807506862368e-006  0.0030866953140051534531
6.8039999999999992516e-009  4.734893387577213163e-006  0.0030773018661084299355
6.8099999999999994377e-009  4.7061187318150066376e-006  0.0030679370045080802884
6.8159999999999996238e-009  4.6775189443733829293e-006  0.0030586006422458566177
6.8219999999999998099e-009  4.6490929614339411953e-006  0.0030492926922268191563
6.8279999999999991688e-009  4.6208397279728915472e-006  0.0030400130683840460855
6.8339999999999993548e-009  4.5927581933412820245e-006  0.0030307616842441707436
6.8399999999999995409e-009  4.5648473144079821084e-006  0.0030215384539694287169
6.845999999999999727e-009  4.5371060541716684656e-006  0.003012343291914674516
6.8519999999999990859e-009  4.5095333818927240722e-006  0.003003176112682279502
6.857999999999999272e-009  4.4821282730238348749e-006  0.0029940368311107447286
6.863999999999999458e-009  4.4548897084036254363e-006  0.0029849253620161508155
6.8699999999999996441e-009  4.4278166772582938258e-006  0.002975841621208458708
6.875999999999999003e-009  4.4009081725587843252e-006  0.0029667855239497121708
6.8819999999999991891e-009  4.3741631947772235424e-006  0.0029577569862235890928
6.8879999999999993752e-009  4.3475807505957635266e-006  0.0029487559243164779103
6.8939999999999995612e-009  4.3211598517327796029e-006  0.0029397822544306845792
6.8999999999999997473e-009  4.2948995168712865669e-006  0.0029308358933489561324
6.9059999999999991062e-009  4.268798770106962567e-006  0.0029219167579200345554
6.9119999999999992923e-009  4.2428566409908531173e-006  0.0029130247650821141508
6.9179999999999994784e-009  4.2170721660524252753e-006  0.0029041598323964281682
6.9239999999999996644e-009  4.1914443880247984636e-006  0.0028953218777969399154
6.9299999999999990233e-009  4.1659723530423630689e-006  0.002886510818632891627
6.9359999999999992094e-009  4.1406551157425200226e-006  0.002877726573440402523
6.9419999999999993955e-009  4.1154917351635417419e-006  0.002868969060538485976
6.9479999999999995816e-009  4.0904812757711811442e-006  0.002860238198392288031
6.9539999999999997676e-009  4.0656228090530299049e-006  0.0028515339061820849445
6.9599999999999991265e-009  4.0409154109430343136e-006  0.0028428561029158810544
6.9659999999999993126e-009  4.016358163459147927e-006  0.0028342047080121605084
6.9719999999999994987e-009  3.9919501537068549047e-006  0.0028255796409610736512
6.9779999999999996848e-009  3.9676904753159360936e-006  0.0028169808218431080689
6.9839999999999990437e-009  3.943578226698632169e-006  0.002808408170725413492
6.9899999999999992297e-009  3.919612511740746287e-006  0.0027998616079159149329
6.9959999999999994158e-009  3.8957924400253488736e-006  0.0027913410540546094475
7.0019999999999996019e-009  3.8721171263081779332e-006  0.0027828464299375840763
7.007999999999999788e-009  3.8485856914094893565e-006  0.0027743776568482847109
7.0139999999999991469e-009  3.825197260234243614e-006  0.0027659346558565854612
7.0199999999999993329e-009  3.8019509642630356831e-006  0.002757517348726218169
7.025999999999999519e-009  3.7788459391899759625e-006  0.0027491256570735269314
7.0319999999999997051e-009  3.7558813272057121509e-006  0.0027407595032055303598
7.037999999999999064e-009  3.7330562745419959294e-006  0.0027324188092391677764
7.0439999999999992501e-009  3.7103699328649420451e-006  0.0027241034976171305156
7.0499999999999994361e-009  3.6878214597176026032e-006  0.0027158134912830824391
7.0559999999999996222e-009  3.6654100168395777892e-006  0.002707548713075935698
7.0619999999999989811e-009  3.6431347718112393808e-006  0.0026993090863445924968
7.0679999999999991672e-009  3.6209948967822838954e-006  0.0026910945344904863702
7.0739999999999993533e-009  3.5989895693287859371e-006  0.0026829049812950090705
7.0799999999999995393e-009  3.5771179710569198635e-006  0.0026747403504104542288
7.0859999999999997254e-009  3.5553792899590331748e-006  0.0026666005662487335393
7.0919999999999990843e-009  3.5337727180273946111e-006  0.0026584855531025159726
7.0979999999999992704e-009  3.5122974528285586225e-006  0.00265039523574449494
7.1039999999999994564e-009  3.4909526955718388688e-006  0.0026423295387108091531
7.1099999999999996425e-009  3.4697376536343185185e-006  0.0026342883872629884248
7.1159999999999990014e-009  3.4486515390564007259e-006  0.0026262717068332441794
7.1219999999999991875e-009  3.4276935676049249697e-006  0.0026182794226762449649
7.1279999999999993736e-009  3.4068629610927625443e-006  0.0026103114607620150553
7.1339999999999995596e-009  3.3861589450668913757e-006  0.0026023677469054567156
7.1399999999999997457e-009  3.3655807507786209145e-006  0.0025944482075303107113
7.1459999999999991046e-009  3.3451276129692434536e-006  0.0025865527688292938406
7.1519999999999992907e-009  3.3247987720578804204e-006  0.0025786813576158958659
7.1579999999999994768e-009  3.3045934722596911113e-006  0.0025708339006087852635
7.1639999999999996628e-009  3.284510963674813064e-006  0.0025630103252522462576
7.1699999999999990217e-009  3.2645504992897493811e-006  0.0025552105585605854043
7.1759999999999992078e-009  3.2447113377957615944e-006  0.002547434528224724274
7.1819999999999993939e-009  3.2249927413289099527e-006  0.0025396821617394999687
7.18799999999999958e-009  3.2053939781273533249e-006  0.0025319533874569467163
7.193999999999999766e-009  3.1859143192513259205e-006  0.0025242481333067577631
7.1999999999999991249e-009  3.166553041602798735e-006  0.0025165663279964620505
7.205999999999999311e-009  3.1473094249523083547e-006  0.0025089078998449935477
7.2119999999999994971e-009  3.1281827547019661486e-006  0.0025012727778880761327
7.2179999999999996832e-009  3.1091723200873436941e-006  0.002493660891174797993
7.2239999999999990421e-009  3.0902774148064214211e-006  0.0024860721690274484828
7.2299999999999992281e-009  3.0714973365932883653e-006  0.0024785065408803293521
7.2359999999999994142e-009  3.0528313881368874655e-006  0.0024709639366598968452
7.2419999999999996003e-009  3.0342788752618581497e-006  0.0024634442860604166374
7.2479999999999989592e-009  3.015839108390001476e-006  0.0024559475191420526881
7.2539999999999991453e-009  2.9975114032845213971e-006  0.002448473566646991971
7.2599999999999993313e-009  2.9792950781105781817e-006  0.0024410223588122162072
7.2659999999999995174e-009  2.9611894563567418956e-006  0.0024335938265687400567
7.2719999999999997035e-009  2.9431938649560933298e-006  0.0024261879007843119467
7.2779999999999990624e-009  2.9253076357182920171e-006  0.0024188045128609677627
7.2839999999999992485e-009  2.9075301036764542159e-006  0.00241144359406412611
7.2899999999999994345e-009  2.8898606080988990371e-006  0.0024041050759477629664
7.2959999999999996206e-009  2.8722984932705312563e-006  0.0023967888906912646237
7.3019999999999989795e-009  2.8548431054850853394e-006  0.0023894949698566370945
7.3079999999999991656e-009  2.8374937969542062112e-006  0.0023822232460263695689
7.3139999999999993517e-009  2.820249923042738798e-006  0.0023749736516613141613
7.3199999999999995377e-009  2.8031108421183635855e-006  0.00236774611904163549
7.3259999999999997238e-009  2.7860759184241856163e-006  0.0023605405814872940269
7.3319999999999990827e-009  2.7691445182367277194e-006  0.002353356971747689718
7.3379999999999992688e-009  2.7523160129852940864e-006  0.002346195223328738453
7.3439999999999994549e-009  2.7355897768104549756e-006  0.002339055269466908029
7.3499999999999996409e-009  2.7189651888476742194e-006  0.0023319370441106141052
7.3559999999999989998e-009  2.7024416305950687905e-006  0.0023248404808051104618
7.3619999999999991859e-009  2.6860184887251075651e-006  0.0023177655139056270971
7.367999999999999372e-009  2.6696951526116554349e-006  0.002310712077525737488
7.3739999999999995581e-009  2.6534710162114668404e-006  0.002303680106356551828
7.3799999999999997441e-009  2.6373454757264578455e-006  0.0022966695346638174406
7.385999999999999103e-009  2.6213179328650633528e-006  0.0022896802977119155506
7.3919999999999992891e-009  2.605387791764262945e-006  0.0022827123304368702496
7.3979999999999994752e-009  2.5895544605007918481e-006  0.002275765568111439742
7.4039999999999996612e-009  2.5738173507998064899e-006  0.0022688399462279422794
7.4099999999999990201e-009  2.5581758778787665874e-006  0.0022619354004386449906
7.4159999999999992062e-009  2.5426294605922595694e-006  0.0022550518666284639739
7.4219999999999993923e-009  2.5271775210094005924e-006  0.0022481892807365666358
7.4279999999999995784e-009  2.5118194852485847808e-006  0.0022413475791356347183
7.4339999999999989373e-009  2.4965547826916405516e-006  0.0022345266982927909118
7.4399999999999991233e-009  2.4813828459743538567e-006  0.0022277265747727452092
7.4459999999999993094e-009  2.4663031111345159899e-006  0.0022209471453118897165
7.4519999999999994955e-009  2.4513150184868806688e-006  0.0022141883472220156431
7.4579999999999996816e-009  2.4364180106193504739e-006  0.0022074501174972676817
7.4639999999999998676e-009  2.4216115342121008049e-006  0.0022007323936417627977
7.4700000000000000537e-009  2.4068950386995248984e-006  0.0021940351130734095722
7.4759999999999985854e-009  2.3922679775609434803e-006  0.0021873582137185228376
7.4819999999999987715e-009  2.3777298074408699933e-006  0.0021807016336220183018
7.4879999999999989576e-009  2.3632799876384225256e-006  0.0021740653107201828552
7.4939999999999991437e-009  2.3489179818754106428e-006  0.0021674491836605586613
7.4999999999999993297e-009  2.3346432560379003356e-006  0.0021608531907734503281
7.5059999999999995158e-009  2.3204552800408613378e-006  0.0021542772709383819878
7.5119999999999997019e-009  2.3063535263504266704e-006  0.0021477213629102014612
7.517999999999999888e-009  2.2923374710935960116e-006  0.0021411854058411643707
7.524000000000000074e-009  2.2784065933313107509e-006  0.002134669338952199704
7.5299999999999986058e-009  2.2645603762132906625e-006  0.0021281731020822958721
7.5359999999999987918e-009  2.2507983038284498878e-006  0.0021216966342191569649
7.5419999999999989779e-009  2.2371198661492895578e-006  0.0021152398758293535809
7.547999999999999164e-009  2.2235245541492945303e-006  0.0021088027665712573248
7.5539999999999993501e-009  2.2100118630700284055e-006  0.0021023852468422758039
7.5599999999999995361e-009  2.1965812904178743479e-006  0.0020959872568400194151
7.5659999999999997222e-009  2.1832323376747515309e-006  0.0020896087373835090309
7.5719999999999999083e-009  2.1699645083016843146e-006  0.0020832496289699344201
7.5780000000000000944e-009  2.1567773098009513899e-006  0.0020769098727681715826
7.5839999999999986261e-009  2.1436702513300054009e-006  0.0020705894094822400661
7.5899999999999988122e-009  2.1306428468391396325e-006  0.0020642881808696864759
7.5959999999999989982e-009  2.1176946117212698396e-006  0.0020580061281353220423
7.6019999999999991843e-009  2.1048250648863776508e-006  0.0020517431929393003566
7.6079999999999993704e-009  2.0920337283134475037e-006  0.0020454993171905226472
7.6139999999999995565e-009  2.0793201266208879559e-006  0.0020392744428452428893
7.6199999999999997425e-009  2.0666837872820249143e-006  0.0020330685120192211468
7.6259999999999999286e-009  2.0541242411518350018e-006  0.0020268814672554655645
7.6320000000000001147e-009  2.0416410209334216298e-006  0.0020207132507772704137
7.6379999999999986464e-009  2.0292336632458062278e-006  0.0020145638055151324913
7.6439999999999988325e-009  2.0169017068533841682e-006  0.0020084330742414016613
7.6499999999999990185e-009  2.0046446938280577811e-006  0.0020023210001536007052
7.6559999999999992046e-009  1.9924621680857230877e-006  0.0019962275261531303369
7.6619999999999993907e-009  1.9803536776919722561e-006  0.0019901525960046239326
7.6679999999999995768e-009  1.9683187724501516146e-006  0.001984096153138830039
7.6739999999999997629e-009  1.9563570048973491538e-006  0.0019780581411562954061
7.6799999999999999489e-009  1.9444679311631567629e-006  0.0019720385042707238785
7.686000000000000135e-009  1.9326511088567528956e-006  0.0019660371862489037925
7.6919999999999986667e-009  1.9209060990193931342e-006  0.0019600541314052492316
7.6979999999999988528e-009  1.9092324656245972238e-006  0.0019540892843596460726
7.7039999999999990389e-009  1.8976297744749197865e-006  0.0019481425894810266378
7.7099999999999992249e-009  1.8860975949002348637e-006  0.0019422139917631296626
7.715999999999999411e-009  1.8746354974992612639e-006  0.0019363034356728603142
7.7219999999999995971e-009  1.863243057710433875e-006  0.0019304108669971965003
7.7279999999999997832e-009  1.8519198510312660155e-006  0.0019245362303844872238
7.7339999999999999692e-009  1.8406654571104378119e-006  0.0019186794714649124238
7.739999999999998501e-009  1.829479458077327372e-006  0.0019128405359973565947
7.745999999999998687e-009  1.8183614380874594473e-006  0.0019070193696381059628
7.7519999999999988731e-009  1.8073109840644813075e-006  0.0019012159183346226919
7.7579999999999990592e-009  1.7963276847588740841e-006  0.0018954301278384672741
7.7639999999999992453e-009  1.785411132976833786e-006  0.0018896619448868804889
7.7699999999999994313e-009  1.7745609226602473982e-006  0.0018839113156729259992
7.7759999999999996174e-009  1.7637766506540292435e-006  0.0018781781867831545772
7.7819999999999998035e-009  1.7530579164284542653e-006  0.0018724625050603573365
7.7879999999999999896e-009  1.7424043213615561617e-006  0.0018667642172280655369
7.7939999999999985213e-009  1.7318154699295964056e-006  0.0018610832705333721013
7.7999999999999987074e-009  1.7212909683915369506e-006  0.0018554196120508896495
7.8059999999999988934e-009  1.7108304259896950346e-006  0.0018497731893341382969
7.8119999999999990795e-009  1.700433453806143245e-006  0.0018441439498076842365
7.8179999999999992656e-009  1.6900996655888016942e-006  0.0018385318412194016652
7.8239999999999994517e-009  1.679828677369625213e-006  0.0018329368114420230198
7.8299999999999996377e-009  1.6696201074820310536e-006  0.0018273588084894718322
7.8359999999999998238e-009  1.6594735765816160447e-006  0.0018217977805352690134
7.8420000000000000099e-009  1.6493887076575834897e-006  0.0018162536759261263628
7.8479999999999985416e-009  1.6393651260247456933e-006  0.0018107264431850250523
7.8539999999999987277e-009  1.6294024591591176193e-006  0.0018052160309276657057
7.8599999999999989138e-009  1.6195003368574453819e-006  0.0017997223879573458465
7.8659999999999990998e-009  1.6096583912581110185e-006  0.001794245463284280381
7.8719999999999992859e-009  1.5998762567985680258e-006  0.0017887852061097598861
7.877999999999999472e-009  1.5901535696753119042e-006  0.0017833415655310184186
7.8839999999999996581e-009  1.5804899687479099517e-006  0.0017779144910528795788
7.8899999999999998441e-009  1.5708850950522347232e-006  0.0017725039323241201759
7.8960000000000000302e-009  1.5613385916572061945e-006  0.0017671098390633255444
7.9019999999999985619e-009  1.551850103649861325e-006  0.0017617321610561926994
7.907999999999998748e-009  1.5424192788789221414e-006  0.0017563708485846161404
7.9139999999999989341e-009  1.5330457661509063047e-006  0.0017510258514087714138
7.9199999999999991202e-009  1.5237292181910226802e-006  0.0017456971204599168283
7.9259999999999993062e-009  1.5144692880976364749e-006  0.0017403846058257562996
7.9319999999999994923e-009  1.5052656319476068456e-006  0.0017350882582437164234
7.9379999999999996784e-009  1.4961179074899552073e-006  0.0017298080283603468367
7.9439999999999998645e-009  1.487025775535121027e-006  0.0017245438675401220281
7.9500000000000000505e-009  1.4779888977883265073e-006  0.0017192957266208314538
7.9559999999999985822e-009  1.4690069383909491223e-006  0.0017140635568093436861
7.9619999999999987683e-009  1.4600795638046879555e-006  0.0017088473096240565288
7.9679999999999989544e-009  1.4512064419499255762e-006  0.0017036469363984577553
7.9739999999999991405e-009  1.4423872437756991595e-006  0.0016984623892071907571
7.9799999999999993265e-009  1.433621640850715703e-006  0.0016932936194592571218
7.9859999999999995126e-009  1.4249093080954368929e-006  0.0016881405795107448133
7.9919999999999996987e-009  1.4162499213397135988e-006  0.0016830032212326354827
7.9979999999999998848e-009  1.4076431588935966161e-006  0.0016778814969440462336
8.0040000000000000708e-009  1.3990887012102781157e-006  0.0016727753592220792091
8.0099999999999986026e-009  1.3905862301412068469e-006  0.0016676847604635636549
8.0159999999999987886e-009  1.3821354298944250254e-006  0.0016626096534631481811
8.0219999999999989747e-009  1.3737359863733487922e-006  0.0016575499910249156914
8.0279999999999991608e-009  1.3653875875340644982e-006  0.0016525057261831588209
8.0339999999999993469e-009  1.3570899232255890901e-006  0.0016474768121133534938
8.0399999999999995329e-009  1.3488426850332185665e-006  0.0016424632020433326245
8.045999999999999719e-009  1.3406455664462150907e-006  0.0016374648493608741015
8.0519999999999999051e-009  1.332498263185107721e-006  0.001632481707821014337
8.0580000000000000912e-009  1.3244004721348819425e-006  0.00162751373090053034
8.0639999999999986229e-009  1.3163518924916138851e-006  0.001622560872504704441
8.069999999999998809e-009  1.3083522255253531908e-006  0.0016176230868316346552
8.075999999999998995e-009  1.3004011736040661961e-006  0.0016127003277757875292
8.0819999999999991811e-009  1.2924984413778578731e-006  0.0016077925496642022068
8.0879999999999993672e-009  1.2846437354301524377e-006  0.0016028997070497907548
8.0939999999999995533e-009  1.2768367635243123894e-006  0.001598021754247614919
8.0999999999999997393e-009  1.2690772357910673177e-006  0.0015931586460808397701
8.1059999999999999254e-009  1.2613648638822140622e-006  0.0015883103373599341546
8.1120000000000001115e-009  1.2536993610416893416e-006  0.0015834767829315903303
8.1179999999999986432e-009  1.2460804428646787746e-006  0.0015786579381643628395
8.1239999999999988293e-009  1.2385078258773325753e-006  0.0015738537580584370437
8.1299999999999990154e-009  1.2309812287626977245e-006  0.0015690641980254968306
8.1359999999999992014e-009  1.2235003721483365292e-006  0.0015642892137634502574
8.1419999999999993875e-009  1.2160649776129644977e-006  0.0015595287606280075401
8.1479999999999995736e-009  1.2086747690559795846e-006  0.0015547827945124551713
8.1539999999999997597e-009  1.2013294720907684891e-006  0.0015500512714686366222
8.1599999999999999457e-009  1.1940288134022865863e-006  0.0015453341472977852843
8.1659999999999984774e-009  1.1867725218843459843e-006  0.0015406313782890090468
8.1719999999999986635e-009  1.1795603280420441554e-006  0.0015359429208418157696
8.1779999999999988496e-009  1.172391963860932075e-006  0.0015312687313864487091
8.1839999999999990357e-009  1.1652671627088001149e-006  0.0015266087663241031773
8.1899999999999992218e-009  1.1581856601422079939e-006  0.0015219629825604880178
8.1959999999999994078e-009  1.1511471927770042464e-006  0.0015173313367732206569
8.2019999999999995939e-009  1.144151499483844618e-006  0.0015127137862026938248
8.20799999999999978e-009  1.1371983199838465913e-006  0.001508110287733524079
8.2139999999999999661e-009  1.130287395932064168e-006  0.0015035207986137499436
8.2199999999999984978e-009  1.12341847077187253e-006  0.0014989452763672678377
8.2259999999999986838e-009  1.1165912888320855505e-006  0.0014943836781978619716
8.2319999999999988699e-009  1.1098055967950417692e-006  0.0014898359619736943962
8.237999999999999056e-009  1.1030611426700874921e-006  0.0014853020855503350217
8.2439999999999992421e-009  1.0963576752281672652e-006  0.0014807820063926812378
8.2499999999999994281e-009  1.0896949459210266786e-006  0.001476275682872969959
8.2559999999999996142e-009  1.0830727071837769757e-006  0.0014717830731352885693
8.2619999999999998003e-009  1.076490712342639824e-006  0.0014673041350331155527
8.2679999999999999864e-009  1.0699487177593082067e-006  0.0014628388275946932386
8.2739999999999985181e-009  1.0634464794530099452e-006  0.0014583871087286873029
8.2799999999999987042e-009  1.0569837565299353095e-006  0.0014539489375696350391
8.2859999999999988902e-009  1.0505603084201812391e-006  0.0014495242725944131826
8.2919999999999990763e-009  1.0441758965398980717e-006  0.0014451130727662095474
8.2979999999999992624e-009  1.0378302837525160253e-006  0.0014407152971718708429
8.3039999999999994485e-009  1.0315232341644205234e-006  0.0014363309048853753827
8.3099999999999996345e-009  1.0252545134759662475e-006  0.0014319598552165952506
8.3159999999999998206e-009  1.0190238885725592766e-006  0.0014276021074322909656
8.3220000000000000067e-009  1.012831128445691068e-006  0.0014232576214063925261
8.3279999999999985384e-009  1.0066760023042841072e-006  0.0014189263563020345759
8.3339999999999987245e-009  1.0005582819682776325e-006  0.0014146082722565123981
8.3399999999999989106e-009  9.9447774007116188769e-007  0.0014103033291254488037
8.3459999999999990966e-009  9.8843415042742059087e-007  0.0014060114867435618852
8.3519999999999992827e-009  9.8242728830230351676e-007  0.0014017327051205614834
8.3579999999999994688e-009  9.7645693116527882036e-007  0.0013974669449867346827
8.3639999999999996549e-009  9.7052285660197781384e-007  0.0013932141663089547129
8.3699999999999998409e-009  9.6462484441164145571e-007  0.0013889743297927730197
8.376000000000000027e-009  9.5876267497572197715e-007  0.0013847473957193216516
8.3819999999999985587e-009  9.529361311261279731e-007  0.0013805333252957915826
8.3879999999999987448e-009  9.4714499616277438829e-007  0.0013763320792328967955
8.3939999999999989309e-009  9.4138905454189557211e-007  0.0013721436182425625436
8.399999999999999117e-009  9.3566809274798279443e-007  0.0013679679036790173483
8.405999999999999303e-009  9.2998189801459074763e-007  0.0013638048966143146226
8.4119999999999994891e-009  9.2433025926735563217e-007  0.001359654558531214405
8.4179999999999996752e-009  9.1871296619539918338e-007  0.0013555168506480465458
8.4239999999999998613e-009  9.1312981053454695234e-007  0.0013513917348678338663
8.4300000000000000473e-009  9.0758058425518008936e-007  0.0013472791724473292575
8.4359999999999985791e-009  9.0206508160500479754e-007  0.0013431791255115639334
8.4419999999999987651e-009  8.9658309741393537628e-007  0.001339091555804856502
8.4479999999999989512e-009  8.9113442815831880407e-007  0.0013350164254857081487
8.4539999999999991373e-009  8.8571887135096301974e-007  0.0013309536966784104445
8.4599999999999993234e-009  8.8033622540756607359e-007  0.0013269033313753990626
8.4659999999999995094e-009  8.7498629075696085719e-007  0.0013228652922780616708
8.4719999999999996955e-009  8.6966886853236767298e-007  0.0013188395418187669715
8.4779999999999998816e-009  8.6438376104574221383e-007  0.0013148260425210190998
8.4840000000000000677e-009  8.5913077185219030113e-007  0.0013108247570535051015
8.4899999999999985994e-009  8.5390970599915968386e-007  0.0013068356484265033612
8.4959999999999987854e-009  8.4872036926330972826e-007  0.0013028586794148549425
8.5019999999999989715e-009  8.4356256896295577456e-007  0.0012988938131833222944
8.5079999999999991576e-009  8.38436113263573377e-007  0.0012949410127597112304
8.5139999999999993437e-009  8.3334081199923677407e-007  0.0012910002416725077905
8.5199999999999995298e-009  8.282764753278728755e-007  0.0012870714629171706167
8.5259999999999997158e-009  8.2324291570034086115e-007  0.0012831546404859712259
8.5319999999999999019e-009  8.1823994566305507409e-007  0.0012792497376689626869
8.5379999999999984336e-009  8.1326737942161747624e-007  0.0012753567182726701333
8.5439999999999986197e-009  8.0832503212830242697e-007  0.0012714755460710225939
8.5499999999999988058e-009  8.0341272029083541873e-007  0.0012676061851307253176
8.5559999999999989918e-009  7.9853026142715705904e-007  0.0012637485995459357691
8.5619999999999991779e-009  7.9367747380014463344e-007  0.0012599027532314902283
8.567999999999999364e-009  7.8885417726657840539e-007  0.0012560686105994197086
8.5739999999999995501e-009  7.8406019278932687166e-007  0.0012522461361803652064
8.5799999999999997361e-009  7.7929534204746596703e-007  0.001248435294316422358
8.5859999999999999222e-009  7.7455944792080086244e-007  0.0012446360495508724392
8.5919999999999984539e-009  7.6985233462436463269e-007  0.0012408483667429833289
8.59799999999999864e-009  7.6517382713808587963e-007  0.0012370722106151167945
8.6039999999999988261e-009  7.6052375165049031861e-007  0.0012333075461136936563
8.6099999999999990122e-009  7.5590193532017100657e-007  0.0012295543382219193285
8.6159999999999991982e-009  7.5130820641321763775e-007  0.0012258125520757385922
8.6219999999999993843e-009  7.4674239444898763171e-007  0.0012220821530887254931
8.6279999999999995704e-009  7.4220432939718888538e-007  0.0012183631063005715117
8.6339999999999997565e-009  7.3769384307496903418e-007  0.0012146553775248098393
8.6399999999999999425e-009  7.332107675598079017e-007  0.0012109589320532781337
8.6459999999999984743e-009  7.2875493632622607998e-007  0.0012072737355929069256
8.6519999999999986603e-009  7.243261837328497287e-007  0.0012035997538491355341
8.6579999999999988464e-009  7.1992434550840875181e-007  0.0011999369529341187383
8.6639999999999990325e-009  7.1554925781291152506e-007  0.0011962852985913615452
8.6699999999999992186e-009  7.1120075841720561417e-007  0.0011926447571822932931
8.6759999999999994046e-009  7.0687868527086846596e-007  0.0011890152944944555949
8.6819999999999995907e-009  7.0258287800355499028e-007  0.0011853968770024281634
8.6879999999999997768e-009  6.9831317709755193199e-007  0.0011817894711813538462
8.6939999999999999629e-009  6.940694236844244245e-007  0.0011781930433374867163
8.6999999999999984946e-009  6.8985146027878337364e-007  0.0011746075602334453934
8.7059999999999986807e-009  6.856591300411089779e-007  0.0011710329884688211368
8.7119999999999988667e-009  6.8149227737621868095e-007  0.0011674692949934218061
8.7179999999999990528e-009  6.7735074706362511507e-007  0.0011639164463685743468
8.7239999999999992389e-009  6.7323438555911360945e-007  0.0011603744098859761127
8.729999999999999425e-009  6.6914303974424765075e-007  0.0011568431525010188215
8.735999999999999611e-009  6.6507655777265146504e-007  0.0011533226415644942664
8.7419999999999997971e-009  6.6103478828075774071e-007  0.0011498128441453049284
8.7479999999999999832e-009  6.5701758130329597852e-007  0.0011463137278278543417
8.7539999999999985149e-009  6.530247875126951274e-007  0.0011428252600574552618
8.759999999999998701e-009  6.4905625851651496864e-007  0.0011393474084022967626
8.765999999999998887e-009  6.4511184670940572084e-007  0.0011358801404280345713
8.7719999999999990731e-009  6.4119140582851590781e-007  0.0011324234241912483397
8.7779999999999992592e-009  6.3729479013457465838e-007  0.0011289772275246074199
8.7839999999999994453e-009  6.3342185465751336744e-007  0.0011255415182546697327
8.7899999999999996314e-009  6.2957245556032521564e-007  0.0011221162645290595067
8.7959999999999998174e-009  6.2574644987249648933e-007  0.0011187014345860977343
8.8020000000000000035e-009  6.2194369530380406893e-007  0.0011152969965922117455
8.8079999999999985352e-009  6.1816405083363055513e-007  0.0011119029191738194224
8.8139999999999987213e-009  6.1440737574708513832e-007  0.0011085191705578077617
8.8199999999999989074e-009  6.1067353037376847687e-007  0.0011051457192368511519
8.8259999999999990934e-009  6.0696237635613412236e-007  0.0011017825342200103945
8.8319999999999992795e-009  6.0327377542963518532e-007  0.0010984295839330214528
8.8379999999999994656e-009  5.9960759081594805554e-007  0.0010950868374845421083
8.8439999999999996517e-009  5.9596368608644868678e-007  0.0010917542636385247582
8.8499999999999998377e-009  5.923419258891499305e-007  0.0010884318314797209598
8.8560000000000000238e-009  5.8874217562291572373e-007  0.0010851195101212729715
8.8619999999999985555e-009  5.8516430169545059587e-007  0.0010818172689465172919
8.8679999999999987416e-009  5.8160817105009804231e-007  0.0010785250771772514518
8.8739999999999989277e-009  5.7807365133865292752e-007  0.0010752429040348538292
8.8799999999999991138e-009  5.7456061173660549754e-007  0.0010719707195036677974
8.8859999999999992998e-009  5.7106892112141226782e-007  0.0010687084926409187551
8.8919999999999994859e-009  5.6759845016475083573e-007  0.0010654561935290918391
8.897999999999999672e-009  5.6414906992579731374e-007  0.0010622137919701450659
8.9039999999999998581e-009  5.6072065186608244033e-007  0.0010589812574980563692
8.9100000000000000441e-009  5.573130688161107563e-007  0.0010557585602931293407
8.9159999999999985759e-009  5.5392619423547880764e-007  0.0010525456704917643229
8.9219999999999987619e-009  5.5055990217854458256e-007  0.0010493425581558622241
8.927999999999998948e-009  5.4721406757711914602e-007  0.0010461491935447057768
8.9339999999999991341e-009  5.4388856611465249505e-007  0.0010429655470001418776
8.9399999999999993202e-009  5.4058327424183114108e-007  0.0010397915889656264652
8.9459999999999995062e-009  5.3729806916173438693e-007  0.0010366272899762329473
8.9519999999999996923e-009  5.3403282867014331112e-007  0.0010334726205082969946
8.9579999999999998784e-009  5.3078743152491828369e-007  0.0010303275513397845264
8.9639999999999984101e-009  5.275617571809625687e-007  0.0010271920532996373955
8.9699999999999985962e-009  5.2435568582164714076e-007  0.001024066097301973028
8.9759999999999987823e-009  5.2116909830280253716e-007  0.0010209496542952572421
8.9819999999999989683e-009  5.1800187586487726303e-007  0.00101784269498275356
8.9879999999999991544e-009  5.14853901215759406e-007  0.0010147451908885890635
8.9939999999999993405e-009  5.1172505730283763123e-007  0.0010116571131592341608
8.9999999999999995266e-009  5.0861522788511073916e-007  0.0010085784331276478887
9.0059999999999997126e-009  5.0552429740656396908e-007  0.0010055091221928959093
9.0119999999999998987e-009  5.0245215092018770852e-007  0.0010024491517480452109
9.0179999999999984304e-009  4.9939867422447462925e-007  0.00099939849331933121486
9.0239999999999986165e-009  4.9636375416468855433e-007  0.00099635711887323657326
9.0299999999999988026e-009  4.9334727770509773012e-007  0.00099332499989187596733
9.0359999999999989887e-009  4.9034913269607433312e-007  0.00099030210814283776283
9.0419999999999991747e-009  4.8736920797647703637e-007  0.00098728841578991184333
