0  1  0.62559999999999993392    0.36620352937750072497
5.9999999999999994754e-012  0.99999999999955058172  0.62344729665516784856    0.36620352937707351115
1.1999999999999998951e-011  0.99999999999909860993  0.62131069961684715075    0.36620352937668532167
1.7999999999999999234e-011  0.99999999999864430666  0.61919046990804882391    0.36620352937634914614
2.3999999999999997902e-011  0.99999999999818767193  0.61708683909243988719    0.3662035293759033916
2.99999999999999998e-011  0.99999999999772870574  0.61500001151965655311    0.36620352937544925487
3.5999999999999998468e-011  0.99999999999726774114  0.61293016638294495202    0.36620352937516520431
4.1999999999999997136e-011  0.99999999999680422302  0.61087745960687156455    0.36620352937467909316
4.7999999999999995803e-011  0.99999999999633848446  0.60884202558097655356    0.36620352937430278306
5.3999999999999994471e-011  0.99999999999587041444  0.60682397875349236571    0.36620352937381578373
5.9999999999999999601e-011  0.99999999999540012396  0.60482341509784498523    0.36620352937340328037
6.5999999999999991806e-011  0.99999999999492750202  0.60284041346326922017    0.36620352937306210883
7.1999999999999996936e-011  0.99999999999445265964  0.60087503681969833824    0.36620352937249139869
7.7999999999999989142e-011  0.99999999999397570782  0.59892733340596338021    0.36620352937226813284
8.3999999999999994272e-011  0.99999999999349653557  0.59699733778946895146    0.366203529371793568
8.9999999999999986477e-011  0.99999999999301525389  0.59508507184459547013    0.36620352937137023996
9.5999999999999991607e-011  0.9999999999925319738  0.59319054565636619714    0.36620352937098876733
1.0199999999999999674e-010  0.99999999999204625123  0.59131375835534216723    0.36620352937057221165
1.0799999999999998894e-010  0.9999999999915587523  0.58945469888905688283    0.36620352937000527627
1.1399999999999999407e-010  0.99999999999106903292  0.58761334673489984404    0.36620352936962285995
1.199999999999999992e-010  0.99999999999057731515  0.58578967255896385868    0.36620352936914501996
1.2599999999999997848e-010  0.99999999999008348794  0.58398363882501191924    0.36620352936865180338
1.3199999999999998361e-010  0.99999999998958766234  0.58219520035741390007    0.3662035293683547077
1.3799999999999998874e-010  0.99999999998908983834  0.58042430486170093484    0.36620352936788219678
1.4399999999999999387e-010  0.99999999998859001593  0.57867089340608957038    0.36620352936745614869
1.49999999999999999e-010  0.99999999998808841717  0.57693490086715903953    0.36620352936698641333
1.5599999999999997828e-010  0.99999999998758470898  0.57521625634268358507    0.3662035293665895086
1.6199999999999998341e-010  0.99999999998707922444  0.57351488353438562218    0.36620352936618316697
1.6799999999999998854e-010  0.99999999998657174149  0.57183070110324507596    0.36620352936573008495
1.7399999999999999367e-010  0.99999999998606248219  0.57016362299977296768    0.36620352936519101616
1.7999999999999997295e-010  0.99999999998555122449  0.56851355877154086116    0.36620352936473854477
1.8599999999999997808e-010  0.99999999998503819043  0.56688041385004894757    0.36620352936434674707
1.9199999999999998321e-010  0.99999999998452326899  0.56526408981883335958    0.36620352936392092102
1.9799999999999998834e-010  0.9999999999840065712  0.56366448466459095901    0.36620352936337602356
2.0399999999999999347e-010  0.99999999998348831909  0.56208149301291865374    0.36620352936300737401
2.0999999999999997275e-010  0.9999999999829681796  0.5605150063501300739    0.36620352936251815423
2.1599999999999997788e-010  0.99999999998244626376  0.55896491323241737081    0.36620352936195965654
2.2199999999999998301e-010  0.99999999998192268258  0.55743109948357549843    0.3662035293615671927
2.2799999999999998814e-010  0.99999999998139743607  0.5559134483823054973    0.36620352936106137509
2.3399999999999996742e-010  0.99999999998087063524  0.55441184084002514965    0.36620352936063560456
2.399999999999999984e-010  0.99999999998034216908  0.55292615557002078308    0.36620352936014222145
2.4599999999999997768e-010  0.99999999997981203759  0.55145626924865853713    0.36620352935964239904
2.5199999999999995697e-010  0.99999999997928035178  0.55000205666927182158    0.36620352935920119641
2.5799999999999998794e-010  0.99999999997874677859  0.54856339088930539116    0.3662035293587481144
2.6399999999999996723e-010  0.99999999997821154007  0.54714014337119043496    0.36620352935825839502
2.699999999999999982e-010  0.99999999997767474724  0.54573218411734703004    0.36620352935768224478
2.7599999999999997749e-010  0.99999999997713651112  0.54433938179974417082    0.36620352935717537246
2.8199999999999995677e-010  0.99999999997659660966  0.54296160388424907772    0.36620352935677524808
2.8799999999999998775e-010  0.99999999997605515389  0.54159871675012405401    0.3662035293562173055
2.9399999999999996703e-010  0.99999999997551236586  0.54025058580486129411    0.36620352935580374742
2.99999999999999998e-010  0.99999999997496813453  0.53891707559457646681    0.36620352935525318783
3.0599999999999997729e-010  0.99999999997442223787  0.53759804991016657549    0.36620352935466599087
3.1199999999999995657e-010  0.99999999997387489792  0.53629337188937042935    0.36620352935426897512
3.1799999999999998755e-010  0.99999999997332633672  0.53500290411489659359    0.36620352935379912873
3.2399999999999996683e-010  0.99999999997277611019  0.53372650870872628825    0.36620352935330990896
3.2999999999999994611e-010  0.99999999997222444037  0.53246404742272523958    0.36620352935276151429
3.3599999999999997709e-010  0.99999999997167132726  0.53121538172567206448    0.36620352935233330127
3.4199999999999995637e-010  0.9999999999711169929  0.52998037288678945256    0.36620352935170330522
3.4799999999999998735e-010  0.99999999997056121526  0.52875888205589061108    0.36620352935134981021
3.5399999999999996663e-010  0.99999999997000410534  0.52755077034021136129    0.36620352935081490475
3.5999999999999994591e-010  0.99999999996944577418  0.52635589887801226272    0.36620352935037986386
3.6599999999999997689e-010  0.99999999996888599973  0.52517412890902803735    0.36620352934971261982
3.7199999999999995617e-010  0.99999999996832489302  0.52400532184187997853    0.36620352934935401779
3.7799999999999998715e-010  0.99999999996776234301  0.52284933931847155097    0.36620352934873851014
3.8399999999999996643e-010  0.99999999996719857176  0.52170604327546388213    0.36620352934820421531
3.8999999999999994571e-010  0.99999999996663346824  0.52057529600292951066    0.36620352934773103826
3.9599999999999997669e-010  0.99999999996606714348  0.51945696020022191775    0.36620352934720212801
4.0199999999999995597e-010  0.99999999996549959747  0.51835089902915332249    0.36620352934675576284
4.0799999999999998695e-010  0.99999999996493094123  0.51725697616454824335    0.36620352934616745566
4.1399999999999996623e-010  0.99999999996436095273  0.51617505584225631399    0.36620352934570876702
4.1999999999999994551e-010  0.99999999996378996503  0.5151050029046482237    0.36620352934508504372
4.2599999999999997649e-010  0.99999999996321764506  0.51404668284376175968    0.36620352934456668059
4.3199999999999995577e-010  0.99999999996264432589  0.51299996184204865735    0.36620352934399463818
4.3799999999999998675e-010  0.99999999996206967445  0.51196470681090766597    0.36620352934357924823
4.4399999999999996603e-010  0.99999999996149391279  0.51094078542698162515    0.36620352934299538195
4.4999999999999994531e-010  0.99999999996091692989  0.50992806616633989947    0.36620352934242650367
4.5599999999999997629e-010  0.99999999996033883676  0.50892641833662233264    0.36620352934187733185
4.6199999999999995557e-010  0.99999999995975985545  0.5079357121071671477    0.36620352934144478896
4.6799999999999993485e-010  0.99999999995917976392  0.50695581853721449761    0.3662035293408665293
4.7399999999999991413e-010  0.99999999995859856217  0.50598660960228969419    0.36620352934030458991
4.7999999999999999681e-010  0.99999999995801613917  0.50502795821875623439    0.36620352933984828825
4.8599999999999997609e-010  0.99999999995743260595  0.50407973826666652162    0.36620352933940569784
4.9199999999999995537e-010  0.9999999999568479625  0.50314182461094769661    0.36620352933875888191
4.9799999999999993465e-010  0.99999999995626231986  0.50221409312098475031    0.36620352933824384944
5.0399999999999991393e-010  0.99999999995567567801  0.50129642068866231419    0.3662035293376492695
5.0999999999999999661e-010  0.99999999995508803696  0.50038868524494495293    0.36620352933713434807
5.1599999999999997589e-010  0.99999999995449961876  0.49949076577500939322    0.36620352933670025086
5.2199999999999995517e-010  0.99999999995390997931  0.4986025423320468164    0.36620352933596755918
5.2799999999999993445e-010  0.99999999995331934066  0.49772389604974087707    0.36620352933550376351
5.3399999999999991373e-010  0.99999999995272770281  0.49685470915348495247    0.36620352933496197467
5.3999999999999999641e-010  0.99999999995213495474  0.49599486497043593358    0.36620352933435851295
5.4599999999999997569e-010  0.99999999995154142951  0.49514424793837841232    0.36620352933393546246
5.5199999999999995497e-010  0.99999999995094690508  0.49430274361352283252    0.36620352933336708379
5.5799999999999993425e-010  0.99999999995035160349  0.49347023867723616153    0.36620352933279082253
5.6399999999999991353e-010  0.99999999994975519169  0.49264662094178901519    0.36620352933223104808
5.6999999999999999621e-010  0.9999999999491578917  0.49183177935514588164    0.3662035293317313922
5.7599999999999997549e-010  0.99999999994855970353  0.49102560400481432001    0.3662035293312236317
5.8199999999999995477e-010  0.99999999994796062719  0.49022798612087903347    0.36620352933055422273
5.8799999999999993405e-010  0.99999999994736066267  0.48943881807816508323    0.36620352933001759643
5.9399999999999991333e-010  0.99999999994675969894  0.48865799339764620646    0.36620352932960642534
5.9999999999999999601e-010  0.99999999994615806909  0.48788540674708230638    0.36620352932904642884
6.0599999999999997529e-010  0.99999999994555555105  0.48712095394096543988    0.36620352932845773308
6.1199999999999995457e-010  0.99999999994495225586  0.48636453193978362863    0.36620352932790828371
6.1799999999999993385e-010  0.99999999994434807249  0.48561603884865267577    0.36620352932732075368
6.2399999999999991313e-010  0.99999999994374300094  0.48487537391534157871    0.36620352932675986901
6.2999999999999999581e-010  0.99999999994313737428  0.48414243752772140317    0.36620352932628308373
6.3599999999999997509e-010  0.9999999999425306374  0.48341713121067636516    0.36620352932555805259
6.4199999999999995437e-010  0.99999999994192301234  0.4826993576225031557    0.3662035293249776835
6.4799999999999993365e-010  0.9999999999413144991  0.48198902055083614471    0.36620352932446798011
6.5399999999999991293e-010  0.99999999994070543075  0.4812860249081006847    0.36620352932398808621
6.5999999999999989221e-010  0.99999999994009547422  0.48059027672655491026    0.36620352932343713803
6.6599999999999997489e-010  0.99999999993948496257  0.47990168315292058843    0.36620352932287419945
6.7199999999999995417e-010  0.99999999993887334071  0.47922015244263577172    0.3662035293223199206
6.7799999999999993345e-010  0.99999999993826116373  0.47854559395376039532    0.36620352932163185988
6.8399999999999991273e-010  0.99999999993764809858  0.47787791814053598438    0.36620352932117905542
6.8999999999999989201e-010  0.99999999993703436729  0.47721703654664787697    0.3662035293206363229
6.9599999999999997469e-010  0.99999999993642008089  0.47656286179819373761    0.36620352931997135482
7.0199999999999995397e-010  0.99999999993580501734  0.47591530759637346026    0.36620352931935762353
7.0799999999999993325e-010  0.99999999993518928765  0.47527428870994431476    0.36620352931891031467
7.1399999999999991253e-010  0.99999999993457255876  0.47463972096742063078    0.36620352931817307107
7.1999999999999989181e-010  0.99999999993395516373  0.47401152124908374486    0.3662035293177725026
7.2599999999999997449e-010  0.99999999993333732462  0.47338960747876712709    0.3662035293170864958
7.3199999999999995377e-010  0.99999999993271881937  0.47277389861547597372    0.3662035293166434613
7.3799999999999993305e-010  0.99999999993209942595  0.47216431464482266911    0.3662035293159888738
7.4399999999999991233e-010  0.99999999993147925537  0.47156077657032829942    0.36620352931547900388
7.4999999999999989161e-010  0.9999999999308586407  0.47096320640455829887    0.36620352931483535208
7.5599999999999997429e-010  0.99999999993023724887  0.47037152716015140363    0.36620352931412741837
7.6199999999999995357e-010  0.99999999992961530193  0.46978566284072148518    0.3662035293136884917
7.6799999999999993285e-010  0.99999999992899279988  0.46920553843166229457    0.36620352931314198441
7.7399999999999991213e-010  0.99999999992836940965  0.46863107989085500682    0.36620352931262156737
7.7999999999999989142e-010  0.99999999992774546431  0.46806221413929649522    0.36620352931193778101
7.8599999999999997409e-010  0.99999999992712096386  0.46749886905165377593    0.36620352931136840313
7.9199999999999995337e-010  0.99999999992649579728  0.46694097344676621653    0.36620352931073657521
7.9799999999999993265e-010  0.99999999992587007558  0.46638845707808157526    0.36620352931011618258
8.0399999999999991194e-010  0.99999999992524357673  0.46584125062405823403    0.36620352930969418681
8.0999999999999989122e-010  0.99999999992461663378  0.46529928567852985033    0.36620352930895344601
8.1599999999999997389e-010  0.99999999992398891369  0.46476249474103686898    0.3662035293084919263
8.2199999999999995317e-010  0.99999999992336063848  0.46423081120714959624    0.36620352930791644219
8.2799999999999993246e-010  0.99999999992273180816  0.46370416935876734854    0.36620352930727351204
8.3399999999999991174e-010  0.99999999992210220068  0.46318250435441654655    0.36620352930664701319
8.3999999999999989102e-010  0.99999999992147214911  0.46266575221954830965    0.36620352930600308383
8.4599999999999997369e-010  0.99999999992084154243  0.46215384983683710507    0.36620352930555088999
8.5199999999999995298e-010  0.99999999992021038064  0.4616467349365054873    0.36620352930496902211
8.5799999999999993226e-010  0.99999999991957866374  0.46114434608664328641    0.36620352930432675809
8.6399999999999991154e-010  0.99999999991894639173  0.46064662268357364772    0.36620352930361765864
8.6999999999999989082e-010  0.99999999991831334256  0.46015350494222412303    0.36620352930320443363
8.7599999999999997349e-010  0.99999999991767996033  0.45966493388654222629    0.36620352930252442203
8.8199999999999995278e-010  0.99999999991704624502  0.45918085133994557268    0.36620352930193017515
8.8799999999999993206e-010  0.99999999991641197461  0.45870119991580310392    0.36620352930146021775
8.9399999999999991134e-010  0.99999999991577714908  0.45822592300796821663    0.36620352930085270371
8.9999999999999989062e-010  0.99999999991514176845  0.45775496478135313527    0.3662035293001313363
9.059999999999998699e-010  0.9999999999145058327  0.45728827016255796378    0.36620352929952160181
9.1199999999999995258e-010  0.99999999991386934184  0.4568257848305477542    0.3662035292988499724
9.1799999999999993186e-010  0.99999999991323218484  0.45636745520738924986    0.36620352929847455048
9.2399999999999991114e-010  0.99999999991259447274  0.45591322844904036415    0.36620352929776933681
9.2999999999999989042e-010  0.99999999991195642757  0.45546305243620666126    0.36620352929721849966
9.359999999999998697e-010  0.99999999991131793831  0.45501687576525473578    0.36620352929664679031
9.4199999999999984898e-010  0.99999999991067878291  0.45457464773920336354    0.36620352929601368563
9.4799999999999982826e-010  0.99999999991003929445  0.45413631835876355769    0.36620352929543587006
9.5400000000000001434e-010  0.99999999990939902883  0.45370183831346050374    0.36620352929486599258
9.5999999999999999362e-010  0.99999999990875854117  0.45327115897282643786    0.36620352929428368061
9.659999999999999729e-010  0.99999999990811760942  0.4528442323776546985    0.36620352929355248772
9.7199999999999995218e-010  0.99999999990747590051  0.45242101123133710017    0.36620352929314525792
9.7799999999999993146e-010  0.99999999990683374751  0.45200144889128146541    0.36620352929242450113
9.8399999999999991074e-010  0.99999999990619126145  0.45158549936038799855    0.36620352929194177616
9.8999999999999989002e-010  0.99999999990554833129  0.45117311727861392212    0.3662035292912445561
9.959999999999998693e-010  0.99999999990490495705  0.45076425791462348958    0.36620352929060001612
1.0019999999999998486e-009  0.99999999990426102769  0.45035887715749267635    0.36620352929005484111
1.0079999999999998279e-009  0.99999999990361676527  0.44995693150852344999    0.36620352928948357585
1.0140000000000000139e-009  0.99999999990297194774  0.44955837807311521681    0.36620352928881466648
1.0199999999999999932e-009  0.99999999990232679714  0.44916317455273124803    0.36620352928819654981
1.0259999999999999725e-009  0.99999999990168131347  0.44877127923693405087    0.36620352928769017709
1.0319999999999999518e-009  0.99999999990103516367  0.44838265099551738446    0.36620352928704080764
1.0379999999999999311e-009  0.99999999990038868081  0.4479972492707017806    0.36620352928647414981
1.0439999999999999103e-009  0.99999999989974175385  0.44761503406943753403    0.36620352928582194929
1.0499999999999998896e-009  0.9999999998990943828  0.44723596595576237123    0.36620352928513361102
1.0559999999999998689e-009  0.99999999989844667869  0.44686000604326225893    0.3662035292846860246
1.0619999999999998482e-009  0.99999999989779864151  0.44648711598760781882    0.36620352928403376858
1.0679999999999998275e-009  0.99999999989714982718  0.44611725797916768066    0.36620352928333121945
1.0739999999999998067e-009  0.99999999989650090182  0.44575039473571620441    0.36620352928269128689
1.0799999999999999928e-009  0.99999999989585153237  0.44538648949521675302    0.3662035292821352872
1.0859999999999999721e-009  0.99999999989520182986  0.44502550600868784336    0.36620352928147437144
1.0919999999999999514e-009  0.99999999989455157223  0.4446674085331521753    0.36620352928089411337
1.0979999999999999307e-009  0.99999999989390098154  0.44431216182467431208    0.36620352928011329352
1.1039999999999999099e-009  0.99999999989325005778  0.44395973113146136591    0.36620352927966015599
1.1099999999999998892e-009  0.99999999989259868993  0.44361008218707115303    0.3662035292790080665
1.1159999999999998685e-009  0.99999999989194676697  0.44326318120368007891    0.36620352927842292345
1.1219999999999998478e-009  0.99999999989129473299  0.44291899486544455966    0.3662035292777854889
1.1279999999999998271e-009  0.9999999998906421439  0.4425774903219379941    0.36620352927727689574
1.1339999999999998063e-009  0.99999999988998922174  0.44223863518166789399    0.36620352927660720921
1.1399999999999999924e-009  0.99999999988933585549  0.44190239750567267274    0.36620352927598792681
1.1459999999999999717e-009  0.99999999988868193412  0.44156874580120003548    0.36620352927539523424
1.151999999999999951e-009  0.99999999988802790174  0.44123764901546097539    0.3662035292748603843
1.1579999999999999303e-009  0.99999999988737342527  0.44090907652946248474    0.36620352927419935751
1.1639999999999999095e-009  0.99999999988671861573  0.44058299815192109028    0.36620352927370014573
1.1699999999999998888e-009  0.99999999988606325108  0.4402593841132468877    0.36620352927289712142
1.1759999999999998681e-009  0.99999999988540755336  0.43993820505961395151    0.3662035292721627644
1.1819999999999998474e-009  0.99999999988475174462  0.43961943204709730271    0.36620352927167965085
1.1879999999999998267e-009  0.99999999988409571383  0.43930303653588442803    0.36620352927109106611
1.1939999999999998059e-009  0.99999999988343923896  0.4389889903845758945    0.36620352927039034885
1.199999999999999992e-009  0.99999999988278243102  0.43867726584454108663    0.36620352926989835352
1.2059999999999999713e-009  0.99999999988212529001  0.43836783555435870907    0.36620352926918425807
1.2119999999999999506e-009  0.99999999988146759389  0.43806067253433039754    0.3662035292685701382
1.2179999999999999299e-009  0.99999999988080967572  0.43775575018105861158    0.36620352926792454351
1.2239999999999999091e-009  0.99999999988015142449  0.43745304226210607323    0.36620352926733146237
1.2299999999999998884e-009  0.99999999987949261815  0.43715252291071621249    0.36620352926666788207
1.2359999999999998677e-009  0.99999999987883370078  0.43685416662060932991    0.36620352926602045551
1.241999999999999847e-009  0.99999999987817433933  0.43655794824085220052    0.36620352926545413075
1.2479999999999998263e-009  0.99999999987751464481  0.43626384297078230068    0.36620352926493560108
1.2539999999999998055e-009  0.99999999987685461722  0.43597182635501585679    0.36620352926427884865
1.2599999999999999916e-009  0.99999999987619414554  0.43568187427851534643    0.3662035292636488526
1.2659999999999999709e-009  0.99999999987553356284  0.43539396296172422351    0.36620352926295623996
1.2719999999999999502e-009  0.99999999987487264708  0.4351080689557642045    0.36620352926239513325
1.2779999999999999295e-009  0.99999999987421128722  0.43482416913771032574    0.36620352926160454343
1.2839999999999999087e-009  0.9999999998735495943  0.43454224070590935503    0.36620352926108051816
1.289999999999999888e-009  0.99999999987288779035  0.43426226117538668792    0.36620352926053290066
1.2959999999999998673e-009  0.99999999987222554232  0.43398420837329654276    0.36620352925981236591
1.3019999999999998466e-009  0.9999999998715628502  0.43370806043444459776    0.36620352925916505038
1.3079999999999998259e-009  0.99999999987090004705  0.43343379579686980296    0.36620352925867966087
1.3139999999999998051e-009  0.99999999987023691084  0.43316139319748409031    0.36620352925796478827
1.3199999999999997844e-009  0.99999999986957344156  0.43289083166778219436    0.36620352925735544236
1.3259999999999999705e-009  0.99999999986890975023  0.43262209052959388345    0.36620352925663951504
1.3319999999999999498e-009  0.99999999986824572584  0.43235514939091462816    0.36620352925606491912
1.3379999999999999291e-009  0.99999999986758125736  0.43208998814178189996    0.36620352925556759471
1.3439999999999999083e-009  0.99999999986691667786  0.43182658695020881279    0.36620352925476173933
1.3499999999999998876e-009  0.99999999986625154325  0.43156492625818376752    0.36620352925419236145
1.3559999999999998669e-009  0.99999999986558640863  0.43130498677771522686    0.36620352925354698881
1.3619999999999998462e-009  0.99999999986492071891  0.43104674948693771919    0.36620352925297061653
1.3679999999999998255e-009  0.99999999986425480714  0.4307901956262754628    0.36620352925229376906
1.3739999999999998047e-009  0.99999999986358878434  0.43053530669465045477    0.36620352925182075854
1.379999999999999784e-009  0.99999999986292231746  0.43028206444575628487    0.36620352925103166752
1.3859999999999999701e-009  0.99999999986225573956  0.43003045088437302779    0.36620352925015076107
1.3919999999999999494e-009  0.99999999986158871756  0.42978044826273920087    0.36620352924976740105
1.3979999999999999287e-009  0.99999999986092158455  0.42953203907698156438    0.36620352924905175129
1.4039999999999999079e-009  0.99999999986025389642  0.42928520606357623013    0.36620352924847393572
1.4099999999999998872e-009  0.9999999998595862083  0.42903993219589187103    0.36620352924785809501
1.4159999999999998665e-009  0.99999999985891796506  0.4287962006807448101    0.36620352924722421317
1.4219999999999998458e-009  0.99999999985824972182  0.42855399495503060381    0.36620352924656451865
1.4279999999999998251e-009  0.99999999985758092347  0.42831329868239570446    0.36620352924597926458
1.4339999999999998043e-009  0.99999999985691212512  0.42807409574994925716    0.3662035292452311408
1.4399999999999997836e-009  0.9999999998562429937  0.42783637026503257283    0.36620352924471716305
1.4459999999999999697e-009  0.99999999985557364024  0.4276001065520299016    0.36620352924402710393
1.451999999999999949e-009  0.99999999985490373167  0.42736528914922322642    0.3662035292432513911
1.4579999999999999283e-009  0.99999999985423382309  0.42713190280569618418    0.36620352924270838102
1.4639999999999999075e-009  0.9999999998535638035  0.426899932478281674    0.366203529242183079
1.4699999999999998868e-009  0.99999999985289333981  0.42666936332854715763    0.36620352924142240969
1.4759999999999998661e-009  0.99999999985222276511  0.42644018071983152973    0.3662035292408221121
1.4819999999999998454e-009  0.99999999985155174631  0.42621237021432439862    0.36620352924018395591
1.4879999999999998247e-009  0.99999999985088039445  0.42598591757017700843    0.36620352923952886881
1.4939999999999998039e-009  0.99999999985020915361  0.42576080873866783971    0.36620352923903032316
1.4999999999999997832e-009  0.99999999984953746868  0.42553702986140307107    0.36620352923821930524
1.5059999999999999693e-009  0.9999999998488655617  0.42531456726755362263    0.36620352923764715181
1.5119999999999999486e-009  0.99999999984819309962  0.42509340747114277015    0.36620352923700838499
1.5179999999999999279e-009  0.99999999984752063753  0.42487353716836118167    0.36620352923640064891
1.5239999999999999071e-009  0.99999999984684806442  0.42465494323493063744    0.36620352923569809978
1.5299999999999998864e-009  0.99999999984617504722  0.42443761272349223024    0.36620352923506743759
1.5359999999999998657e-009  0.99999999984550169696  0.4242215328610572378    0.36620352923455373739
1.541999999999999845e-009  0.9999999998448283467  0.42400669104646498964    0.36620352923387466948
1.5479999999999998243e-009  0.99999999984415455234  0.42379307484790140759    0.36620352923321403127
1.5539999999999998036e-009  0.99999999984348064697  0.42358067200044069445    0.36620352923250754085
1.5599999999999997828e-009  0.99999999984280640852  0.42336947040362826744    0.3662035292318188695
1.5659999999999997621e-009  0.99999999984213217008  0.4231594581190897264    0.36620352923121235467
1.5719999999999999482e-009  0.99999999984145759857  0.42295062336819494453    0.36620352923070242923
1.5779999999999999275e-009  0.99999999984078280502  0.42274295452973087439    0.36620352923003846035
1.5839999999999999067e-009  0.99999999984010778942  0.42253644013762525766    0.36620352922939014562
1.589999999999999886e-009  0.99999999983943244075  0.4223310688787019207    0.36620352922864191081
1.5959999999999998653e-009  0.99999999983875687004  0.4221268295904613832    0.36620352922785609495
1.6019999999999998446e-009  0.99999999983808096626  0.42192371125889877037    0.36620352922739907164
1.6079999999999998239e-009  0.99999999983740495146  0.42172170301635214518    0.36620352922664428652
1.6139999999999998032e-009  0.99999999983672893666  0.42152079413938647878    0.36620352922600379886
1.6199999999999997824e-009  0.99999999983605247778  0.42132097404670360019    0.36620352922547294572
1.6259999999999997617e-009  0.99999999983537590786  0.42112223229707912431    0.36620352922480048363
1.6319999999999999478e-009  0.99999999983469911591  0.42092455858734301177    0.36620352922406540497
1.6379999999999999271e-009  0.99999999983402210191  0.42072794275037789236    0.36620352922351517844
1.6439999999999999063e-009  0.9999999998333445328  0.42053237475314364513    0.36620352922288440523
1.6499999999999998856e-009  0.99999999983266696368  0.42033784469474888557    0.36620352922219612246
1.6559999999999998649e-009  0.99999999983198906151  0.4201443428045317785    0.36620352922157961562
1.6619999999999998442e-009  0.99999999983131115933  0.41995185944017443536    0.36620352922087023861
1.6679999999999998235e-009  0.9999999998306330351  0.41976038508585544751    0.36620352922032128884
1.6739999999999998028e-009  0.99999999982995457781  0.41956991035040941407    0.36620352921965876325
1.679999999999999782e-009  0.99999999982927578746  0.41938042596553820607    0.36620352921896487386
1.6859999999999997613e-009  0.9999999998285969971  0.41919192278402167551    0.36620352921841448079
1.6919999999999999474e-009  0.9999999998279179847  0.41900439177797677015    0.36620352921767929111
1.6979999999999999267e-009  0.99999999982723886127  0.41881782403713085916    0.36620352921697207904
1.703999999999999906e-009  0.9999999998265595158  0.41863221076712453517    0.36620352921630566767
1.7099999999999998852e-009  0.99999999982587994829  0.41844754328783545505    0.36620352921572923988
1.7159999999999998645e-009  0.99999999982520004771  0.41826381303172982529    0.36620352921510274102
1.7219999999999998438e-009  0.99999999982451992508  0.41808101154224219798    0.36620352921434429216
1.7279999999999998231e-009  0.99999999982383969144  0.41789913047216498132    0.36620352921370497024
1.7339999999999998024e-009  0.99999999982315923575  0.41771816158208052716    0.36620352921304111238
1.7399999999999997816e-009  0.99999999982247844699  0.41753809673880121212    0.36620352921236942745
1.7459999999999997609e-009  0.99999999982179743618  0.41735892791383977229    0.36620352921170701288
1.751999999999999947e-009  0.99999999982111631436  0.41718064718189901141    0.3662035292111316398
1.7579999999999999263e-009  0.99999999982043497049  0.41700324671938959753    0.36620352921049315054
1.7639999999999999056e-009  0.99999999981975340457  0.41682671880295585343    0.36620352920993076706
1.7699999999999998848e-009  0.99999999981907172764  0.41665105580804584484    0.3662035292091782579
1.7759999999999998641e-009  0.99999999981838982865  0.41647625020747502944    0.36620352920856868995
1.7819999999999998434e-009  0.99999999981770792967  0.41630229457003492533    0.36620352920793536322
1.7879999999999998227e-009  0.99999999981702547558  0.41612918155911043927    0.36620352920727905488
1.793999999999999802e-009  0.99999999981634302149  0.41595690393131645735    0.36620352920661886076
1.7999999999999997812e-009  0.99999999981566034535  0.41578545453516402297    0.36620352920601650926
1.8059999999999997605e-009  0.99999999981497755819  0.4156148263097301232    0.36620352920530258034
1.8119999999999997398e-009  0.99999999981429454898  0.41544501228336583321    0.36620352920459192658
1.8179999999999999259e-009  0.99999999981361120671  0.41527600557241334256    0.36620352920382925888
1.8239999999999999052e-009  0.9999999998129276424  0.41510779937993785849    0.36620352920327436941
1.8299999999999998844e-009  0.99999999981224396706  0.41494038699448559937    0.36620352920255827556
1.8359999999999998637e-009  0.99999999981156029172  0.41477376178886071756    0.36620352920206200587
1.841999999999999843e-009  0.99999999981087639433  0.41460791721891543382    0.36620352920133825148
1.8479999999999998223e-009  0.99999999981019227491  0.41444284682235660311    0.36620352920075782688
1.8539999999999998016e-009  0.99999999980950804446  0.41427854421757720482    0.36620352919998722108
1.8599999999999997808e-009  0.99999999980882359196  0.41411500310250060064    0.3662035291992963848
1.8659999999999999669e-009  0.99999999980813891742  0.41395221725344261143    0.36620352919863363717
1.8719999999999997394e-009  0.99999999980745390982  0.41379018052398430783    0.36620352919805421177
1.8779999999999999255e-009  0.99999999980676868017  0.41362888684387683069    0.36620352919738058395
1.883999999999999698e-009  0.99999999980608333949  0.41346833021794415775    0.36620352919664328484
1.889999999999999884e-009  0.99999999980539777678  0.41330850472501479143    0.36620352919603404995
1.8959999999999996565e-009  0.99999999980471210304  0.4131494045168623841    0.36620352919540199998
1.9019999999999998426e-009  0.9999999998040264293  0.41299102381716973342    0.36620352919472859421
1.9080000000000000287e-009  0.99999999980334053351  0.41283335692049538679    0.36620352919404519643
1.9139999999999998012e-009  0.99999999980265441568  0.41267639819126550327    0.3662035291933899428
1.9199999999999999872e-009  0.99999999980196796479  0.41252014206278381225    0.36620352919270382497
1.9259999999999997597e-009  0.99999999980128129184  0.41236458303623885202    0.36620352919209719911
1.9319999999999999458e-009  0.9999999998005946189  0.41220971567974890037    0.36620352919137427739
1.9379999999999997183e-009  0.99999999979990783494  0.412055534627402964    0.36620352919071236242
1.9439999999999999044e-009  0.99999999979922105098  0.41190203457832058609    0.36620352919007664871
1.9499999999999996768e-009  0.99999999979853404497  0.41174921029573885445    0.36620352918945375809
1.9559999999999998629e-009  0.9999999997978467059  0.41159705660608292277    0.36620352918879861548
1.9619999999999996354e-009  0.99999999979715914478  0.41144556839808299475    0.3662035291881844401
1.9679999999999998215e-009  0.99999999979647136161  0.41129474062188475791    0.36620352918735354919
1.9740000000000000076e-009  0.99999999979578346743  0.41114456828818063405    0.3662035291868239173
1.97999999999999978e-009  0.9999999997950953512  0.41099504646734491553    0.36620352918616450033
1.9859999999999999661e-009  0.99999999979440712394  0.41084617028859760079    0.36620352918549825549
1.9919999999999997386e-009  0.99999999979371867465  0.41069793493915840443    0.36620352918483106697
1.9979999999999999247e-009  0.99999999979303022535  0.41055033566344278917    0.3662035291841686524
2.0039999999999996972e-009  0.99999999979234155401  0.41040336776223546034    0.36620352918356030569
2.0099999999999998832e-009  0.9999999997916525496  0.41025702659190410593    0.36620352918269599707
2.0159999999999996557e-009  0.99999999979096365621  0.41011130756360880678    0.36620352918217152771
2.0219999999999998418e-009  0.9999999997902746518  0.40996620614253537207    0.36620352918148008081
2.0280000000000000279e-009  0.99999999978958542535  0.40982171784712451146    0.36620352918077941906
2.0339999999999998004e-009  0.99999999978889586583  0.40967783824832199047    0.36620352918015924848
2.0399999999999999864e-009  0.99999999978820630631  0.40953456296884732657    0.36620352917952436744
2.0459999999999997589e-009  0.99999999978751652474  0.4093918876824531039    0.36620352917879156474
2.051999999999999945e-009  0.99999999978682641011  0.40924980811321415297    0.36620352917817733385
2.0579999999999997175e-009  0.99999999978613629548  0.40910832003481600871    0.3662035291775254664
2.0639999999999999036e-009  0.99999999978544618084  0.40896741926985802351    0.36620352917684040328
2.069999999999999676e-009  0.99999999978475584417  0.40882710168916908122    0.36620352917611181942
2.0759999999999998621e-009  0.99999999978406517442  0.40868736321112714149    0.36620352917554793715
2.0819999999999996346e-009  0.99999999978337450468  0.40854819980099554844    0.36620352917488002698
2.0879999999999998207e-009  0.99999999978268350187  0.40840960747025939481    0.36620352917429677131
2.0940000000000000068e-009  0.99999999978199227701  0.40827158227598459028    0.3662035291735246112
2.0999999999999997792e-009  0.99999999978130094114  0.40813412032017831743    0.36620352917281995264
2.1059999999999999653e-009  0.99999999978060960526  0.40799721774915737038    0.36620352917219645139
2.1119999999999997378e-009  0.99999999977991804734  0.4078608707529314259    0.36620352917149234795
2.1179999999999999239e-009  0.99999999977922626737  0.4077250755645957514    0.36620352917082771294
2.1239999999999996964e-009  0.9999999997785344874  0.40758982845972119291    0.36620352917021192773
2.1299999999999998824e-009  0.99999999977784237437  0.40745512575577019776    0.36620352916952531031
2.1359999999999996549e-009  0.99999999977715026134  0.4073209638115050657    0.36620352916887810579
2.141999999999999841e-009  0.99999999977645803728  0.40718733902642700873    0.36620352916811538257
2.1479999999999996135e-009  0.9999999997757657022  0.40705424784018978679    0.3662035291674837767
2.1539999999999997996e-009  0.9999999997750732561  0.40692168673205597607    0.3662035291668620518
2.1599999999999999856e-009  0.99999999977438036591  0.40678965222033852678    0.366203529166021724
2.1659999999999997581e-009  0.99999999977368747572  0.4066581408618691329    0.36620352916559029133
2.1719999999999999442e-009  0.99999999977299447451  0.40652714925145111424    0.3662035291647702806
2.1779999999999997167e-009  0.99999999977230125126  0.40639667402134305174    0.36620352916410331412
2.1839999999999999028e-009  0.99999999977160791698  0.40626671184073465115    0.36620352916341902816
2.1899999999999996752e-009  0.99999999977091436065  0.40613725941523615148    0.36620352916278114952
2.1959999999999998613e-009  0.99999999977022058228  0.40600831348637694829    0.36620352916212606242
2.2019999999999996338e-009  0.99999999976952702596  0.40587987083111148889    0.36620352916138565469
2.2079999999999998199e-009  0.99999999976883313657  0.40575192826132633339    0.36620352916091591933
2.214000000000000006e-009  0.99999999976813902514  0.40562448262335953908    0.36620352916018228395
2.2199999999999997784e-009  0.99999999976744469166  0.40549753079752520746    0.36620352915946685624
2.2259999999999999645e-009  0.99999999976675035818  0.40537106969765068776    0.36620352915879950118
2.231999999999999737e-009  0.99999999976605591367  0.40524509627061233719    0.36620352915811482664
2.2379999999999999231e-009  0.99999999976536124713  0.40511960749587905273    0.36620352915745496558
2.2439999999999996956e-009  0.99999999976466635854  0.4049946003850690146    0.36620352915678611172
2.2499999999999998816e-009  0.99999999976397135892  0.40487007198150987142    0.36620352915616904976
2.2559999999999996541e-009  0.99999999976327635931  0.4047460193597993694    0.36620352915538678662
2.2619999999999998402e-009  0.99999999976258113765  0.40462243962538219089    0.36620352915464698951
2.2679999999999996127e-009  0.99999999976188569395  0.40449932991412551608    0.36620352915412845984
2.2739999999999997988e-009  0.99999999976119013922  0.40437668739190402167    0.36620352915332715638
2.2799999999999999848e-009  0.99999999976049480654  0.40425450925419115222    0.36620352915281867423
2.2859999999999997573e-009  0.99999999975979902977  0.40413279272565771905    0.36620352915214537948
2.2919999999999999434e-009  0.99999999975910314198  0.40401153505976972191    0.36620352915140469419
2.2979999999999997159e-009  0.99999999975840703215  0.40389073353839916036    0.36620352915073417499
2.303999999999999902e-009  0.99999999975771092231  0.40377038547144017411    0.36620352915009912742
2.3099999999999996744e-009  0.99999999975701459043  0.40365048819642740385    0.36620352914932630117
2.3159999999999998605e-009  0.99999999975631792548  0.40353103907815707219    0.36620352914868187222
2.321999999999999633e-009  0.99999999975562126053  0.40341203550832133162    0.36620352914803666611
2.3279999999999998191e-009  0.99999999975492459559  0.40329347490515055075    0.36620352914738085737
2.3339999999999995916e-009  0.99999999975422770859  0.40317535471304077888    0.36620352914659659582
2.3399999999999997776e-009  0.99999999975353071058  0.40305767240221085368    0.36620352914585940773
2.3459999999999999637e-009  0.99999999975283371256  0.40294042546835429075    0.36620352914521653309
2.3519999999999997362e-009  0.9999999997521364925  0.40282361143229306055    0.36620352914453391246
2.3579999999999999223e-009  0.99999999975143927244  0.4027072278396354732    0.36620352914383808018
2.3639999999999996948e-009  0.99999999975074183034  0.40259127226045465786    0.36620352914337928052
2.3699999999999998808e-009  0.99999999975004427721  0.40247574228894689163    0.36620352914252984888
2.3759999999999996533e-009  0.99999999974934650204  0.40236063554311862767    0.36620352914185444471
2.3819999999999998394e-009  0.99999999974864872687  0.40224594966446131084    0.36620352914119091992
2.3879999999999996119e-009  0.9999999997479509517  0.40213168231764284677    0.3662035291405217885
2.393999999999999798e-009  0.99999999974725284346  0.4020178311901937418    0.36620352913985526611
2.399999999999999984e-009  0.99999999974655451318  0.40190439399220279082    0.36620352913915510396
2.4059999999999997565e-009  0.99999999974585640494  0.40179136845601459704    0.36620352913846965226
2.4119999999999999426e-009  0.99999999974515796364  0.40167875233594224627    0.36620352913788423166
2.4179999999999997151e-009  0.99999999974445930029  0.40156654340796493763    0.3662035291371262824
2.4239999999999999012e-009  0.99999999974376041489  0.40145473946944398858    0.3662035291366304568
2.4299999999999996736e-009  0.99999999974306164052  0.40134333833884239251    0.36620352913589154786
2.4359999999999998597e-009  0.99999999974236253308  0.40123233785543993557    0.36620352913520248794
2.4419999999999996322e-009  0.99999999974166331462  0.40112173587906491123    0.36620352913454734534
2.4479999999999998183e-009  0.99999999974096409616  0.40101153028981639803    0.36620352913377590687
2.4539999999999995908e-009  0.99999999974026465566  0.40090171898780174731    0.36620352913315068477
2.4599999999999997768e-009  0.99999999973956521515  0.40079229989287029623    0.36620352913254861082
2.4659999999999999629e-009  0.99999999973886566362  0.40068327094435279845    0.36620352913181575261
2.4719999999999997354e-009  0.99999999973816589005  0.4005746301008105692    0.36620352913110398863
2.4779999999999999215e-009  0.99999999973746589443  0.40046637533977752499    0.36620352913037640397
2.483999999999999694e-009  0.99999999973676612086  0.40035850465751521288    0.36620352912968451298
2.48999999999999988e-009  0.9999999997360659032  0.40025101606876811733    0.36620352912893228137
2.4959999999999996525e-009  0.99999999973536557452  0.40014390760652296386    0.36620352912835868464
2.5019999999999998386e-009  0.99999999973466524583  0.40003717732176480304    0.36620352912765230524
2.5079999999999996111e-009  0.9999999997339646951  0.39993082328325413322    0.36620352912701037429
2.5139999999999997972e-009  0.99999999973326403335  0.39982484357728159674    0.36620352912634596132
2.5199999999999999832e-009  0.9999999997325633716  0.3997192363074530963    0.36620352912568066017
2.5259999999999997557e-009  0.99999999973186248781  0.39961399959446031183    0.36620352912494885667
2.5319999999999999418e-009  0.99999999973116149299  0.39950913157585499214    0.36620352912422454716
2.5379999999999997143e-009  0.99999999973046049817  0.3994046304058406216    0.36620352912349618535
2.5439999999999999004e-009  0.99999999972975928131  0.39930049425505287353    0.36620352912286763258
2.5499999999999996728e-009  0.99999999972905806445  0.3991967213103436718    0.36620352912215747843
2.5559999999999998589e-009  0.99999999972835662554  0.39909330977458101763    0.36620352912145209823
2.5619999999999996314e-009  0.99999999972765496459  0.39899025786643854685    0.36620352912091502784
2.5679999999999998175e-009  0.99999999972695341466  0.39888756382019485702    0.36620352912020925906
2.57399999999999959e-009  0.99999999972625164268  0.39878522588553239059    0.36620352911951820074
2.579999999999999776e-009  0.99999999972554964867  0.39868324232733848289    0.36620352911877523949
2.5859999999999999621e-009  0.99999999972484776567  0.39858161142551579159    0.36620352911818870867
2.5919999999999997346e-009  0.99999999972414554961  0.39848033147478989502    0.36620352911734388446
2.5979999999999999207e-009  0.99999999972344344457  0.3983794007845217755    0.36620352911670334128
2.6039999999999996932e-009  0.99999999972274111748  0.39827881767851874839    0.36620352911603831769
2.6099999999999998792e-009  0.99999999972203856835  0.39817858049485488348    0.36620352911543591068
2.6159999999999996517e-009  0.99999999972133601922  0.39807868758569159295    0.36620352911476616864
2.6219999999999998378e-009  0.99999999972063335907  0.39797913731709216867    0.36620352911402720419
2.6279999999999996103e-009  0.99999999971993069892  0.39787992806885513764    0.36620352911337944457
2.6339999999999997964e-009  0.99999999971922781672  0.39778105823434078969    0.36620352911268261309
2.6399999999999995689e-009  0.99999999971852471248  0.39768252622029653942    0.36620352911192483036
2.6459999999999997549e-009  0.99999999971782149721  0.39758433044669061474    0.36620352911120840345
2.651999999999999941e-009  0.99999999971711828195  0.39748646934654879859    0.36620352911056069933
2.6579999999999997135e-009  0.99999999971641506669  0.39738894136579072658    0.36620352910989789619
2.6639999999999998996e-009  0.99999999971571162938  0.39729174496306551845    0.36620352910921966094
2.6699999999999996721e-009  0.999999999715007859  0.39719487860959995507    0.36620352910840509031
2.6759999999999998581e-009  0.99999999971430431067  0.39709834078903866184    0.36620352910790460177
2.6819999999999996306e-009  0.9999999997136005403  0.39700212999729000973    0.36620352910705328275
2.6879999999999998167e-009  0.99999999971289676992  0.39690624474237429231    0.36620352910647818723
2.6939999999999995892e-009  0.9999999997121927775  0.39681068354427845302    0.36620352910580838968
2.6999999999999997752e-009  0.99999999971148878508  0.39671544493480176419    0.36620352910503967125
2.7059999999999999613e-009  0.99999999971078468164  0.39662052745741310789    0.36620352910441544836
2.7119999999999997338e-009  0.99999999971008035615  0.396525929667114585    0.36620352910373976663
2.7179999999999999199e-009  0.99999999970937603067  0.39643165013029035837    0.36620352910300513205
2.7239999999999996924e-009  0.99999999970867148313  0.39633768742457409218    0.36620352910245562716
2.7299999999999998784e-009  0.9999999997079669356  0.39624404013870956343    0.36620352910150971715
2.7359999999999996509e-009  0.99999999970726227705  0.39615070687241271674    0.36620352910101028332
2.741999999999999837e-009  0.99999999970655739645  0.39605768623624615365    0.36620352910033421301
2.7479999999999996095e-009  0.99999999970585251585  0.39596497685147946655    0.36620352909952635923
2.7539999999999997956e-009  0.99999999970514741321  0.3958725773499710554    0.36620352909893716387
2.7599999999999995681e-009  0.99999999970444253261  0.39578048637402085674    0.36620352909830994337
2.7659999999999997541e-009  0.99999999970373731895  0.39568870257626442832    0.36620352909767994731
2.7719999999999999402e-009  0.99999999970303210528  0.39559722461954099915    0.36620352909680758957
2.7779999999999997127e-009  0.99999999970232666957  0.3955060511767677367    0.36620352909617109871
2.7839999999999998988e-009  0.99999999970162123386  0.39541518093082733687    0.36620352909547665421
2.7899999999999996713e-009  0.99999999970091557611  0.39532461257444018177    0.36620352909476827641
2.7959999999999998573e-009  0.99999999970020980733  0.39523434481005342844    0.36620352909405740061
2.8019999999999996298e-009  0.99999999969950403855  0.39514437634972759961    0.36620352909347086978
2.8079999999999998159e-009  0.99999999969879804773  0.3950547059150135154    0.36620352909274594966
2.8139999999999995884e-009  0.99999999969809227895  0.3949653322368466557    0.36620352909188813584
2.8199999999999997745e-009  0.99999999969738617711  0.39487625405543697044    0.36620352909131737018
2.8259999999999995469e-009  0.99999999969668007527  0.39478747012015913409    0.36620352909062636737
2.831999999999999733e-009  0.99999999969597375138  0.39469897918944185644    0.36620352909006192998
2.8379999999999999191e-009  0.99999999969526720545  0.39461078003066557551    0.36620352908926795399
2.8439999999999996916e-009  0.99999999969456054849  0.39452287142005576515    0.36620352908857900509
2.8499999999999998776e-009  0.99999999969385389154  0.39443525214258151612    0.36620352908791087287
2.8559999999999996501e-009  0.99999999969314723458  0.39434792099185145275    0.3662035290871797355
2.8619999999999998362e-009  0.99999999969244035558  0.39426087677001636633    0.3662035290864359971
2.8679999999999996087e-009  0.99999999969173347658  0.39417411828767112691    0.36620352908575465323
2.8739999999999997948e-009  0.99999999969102637554  0.39408764436374954521    0.36620352908516268231
2.8799999999999995673e-009  0.99999999969031927449  0.39400145382544177197    0.36620352908440989559
2.8859999999999997533e-009  0.99999999968961206243  0.3939155455080876056    0.36620352908380932044
2.8919999999999999394e-009  0.99999999968890485036  0.39382991825508906203    0.36620352908300113359
2.8979999999999997119e-009  0.99999999968819741625  0.39374457091781550622    0.36620352908241665668
2.903999999999999898e-009  0.99999999968748998214  0.39365950235551600001    0.36620352908156839078
2.9099999999999996705e-009  0.99999999968678232598  0.39357471143522920753    0.36620352908083486643
2.9159999999999998565e-009  0.99999999968607466982  0.39349019703169141327    0.3662035290803916654
2.921999999999999629e-009  0.99999999968536690265  0.39340595802725480956    0.36620352907956738031
2.9279999999999998151e-009  0.99999999968465913547  0.39332199331179867885    0.36620352907876679849
2.9339999999999995876e-009  0.99999999968395114625  0.39323830178264251867    0.36620352907825060029
2.9399999999999997737e-009  0.99999999968324315702  0.39315488234446888116    0.36620352907762854233
2.9459999999999995461e-009  0.99999999968253494576  0.39307173390923805245    0.36620352907678394017
2.9519999999999997322e-009  0.99999999968182662347  0.39298885539610722839    0.36620352907617248484
2.9579999999999999183e-009  0.99999999968111830118  0.39290624573134541597    0.36620352907546205312
2.9639999999999996908e-009  0.99999999968040975684  0.39282390384826537666    0.36620352907484887695
2.9699999999999998769e-009  0.99999999967970132353  0.39274182868713464201    0.36620352907402470288
2.9759999999999996493e-009  0.99999999967899266817  0.39266001919510673535    0.36620352907336412018
2.9819999999999998354e-009  0.99999999967828401282  0.39257847432614428884    0.36620352907262809783
2.9879999999999996079e-009  0.99999999967757513541  0.39249719304093699801    0.36620352907186948244
2.993999999999999794e-009  0.99999999967686625801  0.39241617430683978229    0.36620352907122571962
2.9999999999999995665e-009  0.99999999967615738061  0.39233541709779357065    0.36620352907059622316
3.0059999999999997525e-009  0.99999999967544828117  0.39225492039425291502    0.3662035290699343637
3.0119999999999999386e-009  0.99999999967473918172  0.39217468318311859976    0.36620352906913072877
3.0179999999999997111e-009  0.99999999967402997125  0.39209470445766680946    0.36620352906852132735
3.0239999999999998972e-009  0.99999999967332076078  0.39201498321747835218    0.36620352906789721548
3.0299999999999996697e-009  0.99999999967261132827  0.39193551846837665353    0.36620352906719233488
3.0359999999999998557e-009  0.99999999967190189576  0.39185630922235464846    0.36620352906647501978
3.0419999999999996282e-009  0.9999999996711922412  0.39177735449751388552    0.36620352906569370033
3.0479999999999998143e-009  0.99999999967048269767  0.39169865331799647024    0.366203529065079747
3.0539999999999995868e-009  0.99999999966977293209  0.39162020471392450238    0.36620352906429609607
3.0599999999999997729e-009  0.99999999966906316651  0.39154200772132852215    0.36620352906370018387
3.0659999999999995453e-009  0.99999999966835295684  0.39146406138209738357    0.366203529062964106
3.0719999999999997314e-009  0.99999999966764296921  0.39138636474391030884    0.36620352906230146939
3.0779999999999999175e-009  0.99999999966693275955  0.39130891686017410525    0.36620352906160091866
3.08399999999999969e-009  0.99999999966622277192  0.39123171678996715439    0.3662035290609524929
3.0899999999999998761e-009  0.99999999966551245123  0.39115476359797951567    0.36620352906025871453
3.0959999999999996485e-009  0.99999999966480213054  0.39107805635445402892    0.36620352905964465018
3.1019999999999998346e-009  0.9999999996640915878  0.39100159413513230211    0.36620352905880237948
3.1079999999999996071e-009  0.99999999966338104507  0.39092537602119281637    0.36620352905813946531
3.1139999999999997932e-009  0.99999999966267028029  0.39084940109919652507    0.36620352905736808236
3.1199999999999995657e-009  0.99999999966195951551  0.39077366846103606113    0.36620352905653086317
3.1259999999999997517e-009  0.9999999996612486397  0.39069817720387634008    0.36620352905598796411
3.1319999999999995242e-009  0.9999999996605377639  0.39062292643010587678    0.36620352905534669929
3.1379999999999997103e-009  0.9999999996598268881  0.39054791524727711094    0.36620352905460262782
3.1439999999999998964e-009  0.99999999965911579025  0.39047314276806038835    0.36620352905387887343
3.1499999999999996689e-009  0.9999999996584046924  0.39039860811019166942    0.36620352905324021764
3.1559999999999998549e-009  0.99999999965769337251  0.3903243103964176286    0.36620352905242420372
3.1619999999999996274e-009  0.99999999965698216364  0.39025024875444930261    0.36620352905178699121
3.1679999999999998135e-009  0.99999999965627073273  0.39017642231691368471    0.36620352905106395847
3.173999999999999586e-009  0.99999999965555930181  0.39010283022130348707    0.36620352905032282909
3.1799999999999997721e-009  0.99999999965484764886  0.39002947160992529341    0.36620352904975450592
3.1859999999999995445e-009  0.9999999996541359959  0.38995634562985981297    0.3662035290490146533
3.1919999999999997306e-009  0.99999999965342400987  0.38988345143290681349    0.36620352904826530827
3.1979999999999999167e-009  0.99999999965271224589  0.38981078817554615235    0.36620352904775976821
3.2039999999999996892e-009  0.99999999965200048191  0.38973835501888892674    0.36620352904712766273
3.2099999999999998753e-009  0.99999999965128827384  0.3896661511286325652    0.36620352904625169677
3.2159999999999996477e-009  0.99999999965057628781  0.38959417567501558599    0.36620352904549230422
3.2219999999999998338e-009  0.99999999964986407974  0.38952242783277335469    0.36620352904487818435
3.2279999999999996063e-009  0.99999999964915187167  0.38945090678110294569    0.36620352904414577022
3.2339999999999997924e-009  0.99999999964843933054  0.38937961170360757546    0.36620352904355640833
3.2399999999999995649e-009  0.99999999964772701144  0.3893085417882616861    0.3662035290426871037
3.2459999999999997509e-009  0.99999999964701469235  0.38923769622737280915    0.36620352904211800338
3.2519999999999995234e-009  0.99999999964630192917  0.38916707421753266027    0.36620352904129677141
3.2579999999999997095e-009  0.99999999964558938803  0.38909667495958227823    0.36620352904071551414
3.2639999999999998956e-009  0.99999999964487662485  0.38902649765857294506    0.36620352903992786642
3.2699999999999996681e-009  0.99999999964416386167  0.38895654152372022283    0.36620352903924952015
3.2759999999999998541e-009  0.99999999964345098746  0.38888680576837264535    0.3662035290385976527
3.2819999999999996266e-009  0.99999999964273811326  0.38881728960996925215    0.36620352903793568222
3.2879999999999998127e-009  0.99999999964202501701  0.38874799227000017554    0.36620352903728653482
3.2939999999999995852e-009  0.99999999964131192076  0.38867891297397666461    0.36620352903645247977
3.2999999999999997713e-009  0.99999999964059882451  0.38861005095138639875    0.36620352903582342741
3.3059999999999995437e-009  0.99999999963988550622  0.38854140543565995891    0.36620352903508485154
3.3119999999999997298e-009  0.99999999963917240997  0.38847297566413446779    0.36620352903429970182
3.3179999999999999159e-009  0.99999999963845898066  0.38840476087802283667    0.36620352903364578045
3.3239999999999996884e-009  0.99999999963774555134  0.38833676032237191    0.36620352903300418257
3.3299999999999998745e-009  0.99999999963703212202  0.38826897324602960282    0.36620352903219377527
3.3359999999999996469e-009  0.99999999963631847066  0.38820139890161464713    0.36620352903153774449
3.341999999999999833e-009  0.9999999996356048193  0.3881340365454780672    0.36620352903093750241
3.3479999999999996055e-009  0.9999999996348909459  0.3880668854376754795    0.36620352903015124246
3.3539999999999997916e-009  0.99999999963417729454  0.38799994484192751321    0.36620352902940028761
3.3599999999999995641e-009  0.99999999963346353216  0.38793321402559494127    0.36620352902874120371
3.3659999999999997501e-009  0.99999999963274954773  0.38786669225964126584    0.36620352902791514227
3.3719999999999995226e-009  0.9999999996320355633  0.38780037881860313087    0.3662035290274204824
3.3779999999999997087e-009  0.99999999963132135683  0.38773427298055612722    0.36620352902668545925
3.3839999999999998948e-009  0.99999999963060715036  0.38766837402709236615    0.3662035290260057252
3.3899999999999996673e-009  0.99999999962989261082  0.38760268124328156603    0.36620352902524588856
3.3959999999999998533e-009  0.99999999962917829333  0.38753719391764390734    0.36620352902444697207
3.4019999999999996258e-009  0.99999999962846397583  0.38747191134212233266    0.36620352902386243965
3.4079999999999998119e-009  0.99999999962774943629  0.38740683281205201549    0.36620352902307473641
3.4139999999999995844e-009  0.99999999962703489675  0.38734195762612777525    0.36620352902233910264
3.4199999999999997705e-009  0.99999999962632013517  0.38727728508638675775    0.36620352902182334853
3.4259999999999995429e-009  0.99999999962560537359  0.38721281449816419284    0.36620352902104924553
3.431999999999999729e-009  0.99999999962489072303  0.38714854517008207013    0.36620352902046116039
3.4379999999999995015e-009  0.99999999962417585042  0.38708447641400672845    0.36620352901957625713
3.4439999999999996876e-009  0.99999999962346097782  0.38702060754503536666    0.36620352901887792685
3.4499999999999998737e-009  0.99999999962274610521  0.38695693788146118264    0.36620352901812835977
3.4559999999999996461e-009  0.99999999962203101056  0.38689346674474561771    0.36620352901748676189
3.4619999999999998322e-009  0.99999999962131591591  0.38683019345949987144    0.36620352901683356217
3.4679999999999996047e-009  0.99999999962060059921  0.38676711735345353782    0.36620352901614067198
3.4739999999999997908e-009  0.9999999996198851715  0.38670423775742884809    0.36620352901535835333
3.4799999999999995633e-009  0.99999999961916996583  0.3866415540053200206    0.3662035290147070965
3.4859999999999997493e-009  0.99999999961845453811  0.3865790654340647281    0.36620352901400621271
3.4919999999999995218e-009  0.99999999961773911039  0.38651677138362056096    0.3662035290132719112
3.4979999999999997079e-009  0.99999999961702346063  0.38645467119694176805    0.36620352901256797429
3.503999999999999894e-009  0.99999999961630781087  0.38639276421995200073    0.36620352901202063434
3.5099999999999996665e-009  0.99999999961559216111  0.38633104980152460639    0.3662035290111756991
3.5159999999999998525e-009  0.9999999996148762893  0.38626952729346009097    0.36620352901051800298
3.521999999999999625e-009  0.99999999961416041749  0.38620819605045919598    0.36620352900989866507
3.5279999999999998111e-009  0.99999999961344443467  0.3861470554301031366    0.36620352900901020909
3.5339999999999995836e-009  0.99999999961272845184  0.38608610479282906569    0.36620352900831437681
3.5399999999999997697e-009  0.99999999961201246901  0.3860253435019079804    0.36620352900773422977
3.5459999999999995421e-009  0.99999999961129626413  0.38596477092342751369    0.36620352900690861242
3.5519999999999997282e-009  0.99999999961058005926  0.38590438642626145871    0.36620352900613151181
3.5579999999999995007e-009  0.99999999960986385439  0.38584418938205833349    0.36620352900553471143
3.5639999999999996868e-009  0.99999999960914742747  0.38578417916521251518    0.36620352900489905323
3.5699999999999998729e-009  0.99999999960843100055  0.38572435515284780871    0.36620352900398994711
3.5759999999999996453e-009  0.99999999960771468466  0.38566471672479402111    0.36620352900348901448
3.5819999999999998314e-009  0.99999999960699814672  0.38560526326356692195    0.36620352900266861518
3.5879999999999996039e-009  0.99999999960628160878  0.38554599415435208964    0.36620352900208669178
3.59399999999999979e-009  0.99999999960556462675  0.38548690878498115264    0.36620352900136488028
3.5999999999999995625e-009  0.99999999960484786676  0.38542800654590841924    0.36620352900062347334
3.6059999999999997485e-009  0.99999999960413099576  0.38536928683020393871    0.36620352899995262108
3.611999999999999521e-009  0.9999999996034139027  0.38531074903352074967    0.36620352899898866994
3.6179999999999997071e-009  0.9999999996026970317  0.38525239255408422201    0.36620352899849345496
3.6239999999999994796e-009  0.99999999960198016069  0.38519421679266940828    0.36620352899778385591
3.6299999999999996657e-009  0.99999999960126306764  0.38513622115258472345    0.36620352899708763506
3.6359999999999998517e-009  0.99999999960054597459  0.38507840503965012902    0.36620352899637720334
3.6419999999999996242e-009  0.99999999959982888154  0.38502076786218436544    0.36620352899566288585
3.6479999999999998103e-009  0.99999999959911156644  0.38496330903098219256    0.36620352899502267574
3.6539999999999995828e-009  0.99999999959839414032  0.38490602795930106694    0.36620352899424457593
3.6599999999999997689e-009  0.9999999995976767142  0.38484892406284232358    0.36620352899363972643
3.6659999999999995414e-009  0.99999999959695906604  0.38479199675973035921    0.36620352899271230163
3.6719999999999997274e-009  0.99999999959624163992  0.38473524547049958722    0.36620352899221164655
3.6779999999999994999e-009  0.9999999995955242138  0.38467866961807395398    0.36620352899151931148
3.683999999999999686e-009  0.99999999959480656564  0.38462226862775605873    0.36620352899080116371
3.6899999999999998721e-009  0.99999999959408891748  0.38456604192720900137    0.3662035289900514301
3.6959999999999996445e-009  0.99999999959337126931  0.38450998894643134696    0.36620352898940011777
3.7019999999999998306e-009  0.99999999959265339911  0.38445410911775318441    0.36620352898860419888
3.7079999999999996031e-009  0.99999999959193541788  0.38439840187581370001    0.36620352898789976237
3.7139999999999997892e-009  0.9999999995912172146  0.38434286665754607837    0.3662035289871706234
3.7199999999999995617e-009  0.99999999959049923337  0.38428750290216456831    0.36620352898662711372
3.7259999999999997477e-009  0.99999999958978125214  0.38423231005114355519    0.36620352898579894285
3.7319999999999999338e-009  0.99999999958906282682  0.38417728754821095505    0.36620352898503893968
3.7379999999999992927e-009  0.99999999958834462355  0.38412243483932317911    0.36620352898434715971
3.7439999999999994788e-009  0.99999999958762642027  0.38406775137265769526    0.36620352898365704508
3.7499999999999996649e-009  0.99999999958690799495  0.38401323659859637472    0.36620352898297808819
3.7559999999999998509e-009  0.99999999958618956963  0.38395888996970789497    0.36620352898231944838
3.762000000000000037e-009  0.99999999958547103329  0.38390471094073969072    0.3662035289816011896
3.7679999999999993959e-009  0.99999999958475249695  0.38385069896859769223    0.36620352898080327231
3.773999999999999582e-009  0.99999999958403396061  0.38379685351233400192    0.3662035289802481608
3.7799999999999997681e-009  0.99999999958331542427  0.38374317403313196184    0.36620352897939517645
3.7859999999999999541e-009  0.99999999958259644384  0.38368965999429721636    0.36620352897870184217
3.791999999999999313e-009  0.99999999958187768545  0.38363631086124244662    0.36620352897816782489
3.7979999999999994991e-009  0.99999999958115892706  0.38358312610146588773    0.366203528977304682
3.8039999999999996852e-009  0.99999999958043994663  0.38353010518454933031    0.36620352897655694679
3.8099999999999998713e-009  0.99999999957972118825  0.38347724758213969087    0.36620352897593716479
3.8160000000000000573e-009  0.99999999957900209679  0.38342455276793252494    0.36620352897525038083
3.8219999999999994162e-009  0.99999999957828322739  0.38337202021766664251    0.36620352897438201989
3.8279999999999996023e-009  0.99999999957756413593  0.38331964940910623341    0.36620352897364810696
3.8339999999999997884e-009  0.99999999957684504448  0.38326743982202915451    0.36620352897310476381
3.8399999999999999745e-009  0.99999999957612595303  0.38321539093821588295    0.36620352897229957456
3.8459999999999993334e-009  0.99999999957540641748  0.38316350224143774783    0.36620352897162500305
3.8519999999999995194e-009  0.99999999957468710399  0.38311177321743811186    0.36620352897103253254
3.8579999999999997055e-009  0.99999999957396767947  0.38306020335392948484    0.36620352897027075301
3.8639999999999998916e-009  0.9999999995732480329  0.38300879214057720334    0.36620352896951724464
3.8699999999999992505e-009  0.99999999957252860838  0.38295753906898749586    0.36620352896889535321
3.8759999999999994366e-009  0.99999999957180918386  0.38290644363269427108    0.36620352896805569154
3.8819999999999996226e-009  0.9999999995710895373  0.3828555053271537334    0.36620352896734847947
3.8879999999999998087e-009  0.99999999957036989073  0.38280472364972167876    0.36620352896668378895
3.8939999999999999948e-009  0.99999999956965024417  0.38275409809965577068    0.36620352896589447589
3.8999999999999993537e-009  0.99999999956893037556  0.38270362817809572276    0.36620352896519570152
3.9059999999999995398e-009  0.99999999956821050695  0.38265331338805141925    0.36620352896445651503
3.9119999999999997258e-009  0.99999999956749052732  0.38260315323439714197    0.36620352896396635156
3.9179999999999999119e-009  0.99999999956677054769  0.38255314722385441728    0.36620352896311597624
3.9239999999999992708e-009  0.99999999956605034601  0.38250329486499101694    0.36620352896231900264
3.9299999999999994569e-009  0.99999999956533036638  0.38245359566820003039    0.36620352896172059243
3.935999999999999643e-009  0.99999999956461038675  0.38240404914569436912    0.36620352896094526818
3.941999999999999829e-009  0.99999999956389018507  0.38235465481149477629    0.36620352896023794509
3.9480000000000000151e-009  0.9999999995631699834  0.38230541218142033433    0.36620352895957036798
3.953999999999999374e-009  0.99999999956244955968  0.38225632077307858392    0.36620352895899516144
3.9599999999999995601e-009  0.99999999956172913596  0.38220738010585453281    0.36620352895810598381
3.9659999999999997462e-009  0.99999999956100871223  0.38215858970089894298    0.36620352895745983401
3.9719999999999999322e-009  0.99999999956028817749  0.38210994908112511093    0.36620352895675650773
3.9779999999999992911e-009  0.99999999955956764275  0.38206145777118977191    0.36620352895596886
3.9839999999999994772e-009  0.99999999955884710801  0.38201311529749087947    0.36620352895535612792
3.9899999999999996633e-009  0.99999999955812657326  0.38196492118815078554    0.36620352895465757559
3.9959999999999998493e-009  0.99999999955740603852  0.38191687497301501919    0.36620352895382590752
4.0020000000000000354e-009  0.99999999955668528173  0.38186897618363763174    0.3662035289531766491
4.0079999999999993943e-009  0.99999999955596452494  0.38182122435326859566    0.36620352895238755808
4.0139999999999995804e-009  0.99999999955524376816  0.38177361901685741286    0.36620352895172753049
4.0199999999999997665e-009  0.99999999955452278932  0.3817261597110271909    0.36620352895091079493
4.0259999999999999525e-009  0.99999999955380169947  0.3816788459740776962    0.36620352895034607998
4.0319999999999993114e-009  0.99999999955308060962  0.38163167734597097658    0.36620352894963376089
4.0379999999999994975e-009  0.99999999955235951976  0.38158465336832370074    0.36620352894894381279
4.0439999999999996836e-009  0.99999999955163842991  0.38153777358439766587    0.36620352894816898814
4.0499999999999998697e-009  0.99999999955091734005  0.3814910375390936359    0.36620352894750907158
4.0560000000000000557e-009  0.9999999995501962502  0.38144444477894012824    0.36620352894667912436
4.0619999999999994146e-009  0.9999999995494749383  0.38139799485208619734    0.36620352894613861228
4.0679999999999996007e-009  0.9999999995487536264  0.38135168730828677974    0.36620352894527224974
4.0739999999999997868e-009  0.9999999995480323145  0.38130552169890763459    0.36620352894463825688
4.0799999999999999729e-009  0.9999999995473110026  0.38125949757690397179    0.36620352894392771415
4.0859999999999993318e-009  0.99999999954658946866  0.38121361449681800959    0.36620352894324142978
4.0919999999999995178e-009  0.99999999954586793471  0.38116787201477092539    0.36620352894256869014
4.0979999999999997039e-009  0.99999999954514628975  0.38112226968845425157    0.36620352894179636349
4.10399999999999989e-009  0.99999999954442442274  0.38107680707711899526    0.36620352894109559072
4.1099999999999992489e-009  0.99999999954370277777  0.3810314837415727518    0.36620352894031410473
4.115999999999999435e-009  0.99999999954298113281  0.38098629924416543835    0.36620352893964247531
4.121999999999999621e-009  0.99999999954225926579  0.38094125314878668487    0.36620352893891605639
4.1279999999999998071e-009  0.99999999954153739878  0.38089634502085950585    0.36620352893819790863
4.1339999999999999932e-009  0.99999999954081553177  0.38085157442732670008    0.36620352893756269452
4.1399999999999993521e-009  0.99999999954009366476  0.38080694093664679833    0.36620352893680607753
4.1459999999999995382e-009  0.99999999953937179775  0.3807624441187857367    0.3662035289360875967
4.1519999999999997242e-009  0.9999999995386497087  0.38071808354520919604    0.36620352893533569816
4.1579999999999999103e-009  0.99999999953792773066  0.38067385878887344264    0.36620352893458713028
4.1639999999999992692e-009  0.99999999953720553059  0.38062976942422394044    0.36620352893393537386
4.1699999999999994553e-009  0.99999999953648333051  0.38058581502718108469    0.36620352893317176246
4.1759999999999996414e-009  0.99999999953576113043  0.38054199517514003537    0.36620352893243757197
4.1819999999999998274e-009  0.99999999953503893035  0.38049830944695217649    0.36620352893183261145
4.1880000000000000135e-009  0.99999999953431650823  0.3804547574229324991    0.366203528931056288
4.1939999999999993724e-009  0.99999999953359408611  0.3804113386848405054    0.36620352893037316777
4.1999999999999995585e-009  0.99999999953287166399  0.38036805281587848793    0.36620352892973973002
4.2059999999999997446e-009  0.99999999953214913084  0.38032489940068930911    0.36620352892888513585
4.2119999999999999306e-009  0.9999999995314265977  0.38028187802533774953    0.36620352892828544888
4.2179999999999992895e-009  0.99999999953070384251  0.38023898827731583694    0.3662035289274735983
4.2239999999999994756e-009  0.99999999952998130937  0.38019622974552697015    0.36620352892670932077
4.2299999999999996617e-009  0.99999999952925877622  0.38015360202028375403    0.36620352892604018935
4.2359999999999998478e-009  0.99999999952853624308  0.38011110469330211536    0.36620352892532298528
4.2420000000000000338e-009  0.99999999952781348789  0.38006873735769047817    0.36620352892464363981
4.2479999999999993927e-009  0.9999999995270907327  0.38002649960794715467    0.3662035289239068403
4.2539999999999995788e-009  0.99999999952636797751  0.37998439103995329535    0.36620352892321056393
4.2599999999999997649e-009  0.99999999952564477823  0.37994241125096517298    0.36620352892250146448
4.265999999999999951e-009  0.999999999524921801  0.37990055983960940855    0.36620352892190560778
4.2719999999999993098e-009  0.99999999952419871274  0.37985883640587236876    0.36620352892106350362
4.2779999999999994959e-009  0.99999999952347562449  0.37981724055110033245    0.36620352892037083548
4.283999999999999682e-009  0.99999999952275231418  0.37977577187798888803    0.36620352891973140252
4.2899999999999998681e-009  0.99999999952202922593  0.3797344299905791587    0.36620352891894208947
4.295999999999999227e-009  0.99999999952130613767  0.37969321449424842108    0.36620352891826268849
4.301999999999999413e-009  0.99999999952058304942  0.37965212499570794025    0.36620352891755619806
4.3079999999999995991e-009  0.99999999951985973912  0.37961116110299453208    0.36620352891690088892
4.3139999999999997852e-009  0.99999999951913642882  0.37957032242546606682    0.36620352891618124236
4.3199999999999999713e-009  0.99999999951841311852  0.37952960857379441917    0.36620352891533836104
4.3259999999999993302e-009  0.99999999951768980821  0.37948901915995930656    0.36620352891461299683
4.3319999999999995162e-009  0.99999999951696627587  0.37944855379724107269    0.36620352891389346128
4.3379999999999997023e-009  0.99999999951624274352  0.37940821210022218635    0.36620352891324803313
4.3439999999999998884e-009  0.99999999951551910016  0.37936799368477064354    0.36620352891253599159
4.3499999999999992473e-009  0.99999999951479545679  0.37932789816804363126    0.36620352891173119092
4.3559999999999994334e-009  0.99999999951407159138  0.37928792516847542604    0.36620352891112506466
4.3619999999999996194e-009  0.99999999951334794801  0.37924807430577506251    0.36620352891031898723
4.3679999999999998055e-009  0.99999999951262430464  0.37920834520092339126    0.36620352890964941173
4.3739999999999999916e-009  0.99999999951190066128  0.37916873747616142154    0.36620352890892965414
4.3799999999999993505e-009  0.99999999951117679586  0.37912925075498576932    0.36620352890823754111
4.3859999999999995366e-009  0.99999999951045293045  0.37908988466214826873    0.36620352890748153474
4.3919999999999997226e-009  0.99999999950972906504  0.37905063882364620209    0.3662035289067899213
4.3979999999999999087e-009  0.99999999950900519963  0.37901151286671902474    0.36620352890611601593
4.4039999999999992676e-009  0.99999999950828133422  0.37897250641984142616    0.36620352890526852718
4.4099999999999994537e-009  0.99999999950755724676  0.37893361911271861153    0.36620352890454782591
4.4159999999999996398e-009  0.9999999995068331593  0.37889485057628313758    0.36620352890396490331
4.4219999999999998258e-009  0.99999999950610896082  0.37885620044268575324    0.36620352890314183947
4.4280000000000000119e-009  0.99999999950538476234  0.37881766834529390087    0.36620352890246932187
4.4339999999999993708e-009  0.99999999950466034182  0.378779253918683112    0.36620352890184548755
4.4399999999999995569e-009  0.99999999950393614334  0.37874095679863545305    0.36620352890114110656
4.445999999999999743e-009  0.99999999950321194486  0.37870277662213386316    0.36620352890024904235
4.451999999999999929e-009  0.99999999950248774638  0.37866471302735321691    0.36620352889951068853
4.4579999999999992879e-009  0.99999999950176332586  0.37862676565366037984    0.36620352889895774195
4.463999999999999474e-009  0.99999999950103890534  0.37858893414160593727    0.36620352889812013419
4.4699999999999996601e-009  0.99999999950031448481  0.37855121813292275101    0.36620352889740986901
4.4759999999999998462e-009  0.99999999949959006429  0.37851361727051435757    0.36620352889677998398
4.4819999999999992051e-009  0.99999999949886542172  0.37847613119846029717    0.36620352889608476232
4.4879999999999993911e-009  0.99999999949814077915  0.37843875956199990451    0.36620352889538004826
4.4939999999999995772e-009  0.99999999949741602556  0.37840150200753863707    0.36620352889450741296
4.4999999999999997633e-009  0.99999999949669127197  0.37836435818263397524    0.36620352889401264207
4.5059999999999999494e-009  0.99999999949596651838  0.37832732773599425657    0.36620352889324819801
4.5119999999999993083e-009  0.99999999949524176479  0.37829041031747778767    0.36620352889246438055
4.5179999999999994943e-009  0.9999999994945170112  0.37825360557808274109    0.36620352889172330668
4.5239999999999996804e-009  0.99999999949379225761  0.37821691316994526799    0.36620352889106261296
4.5299999999999998665e-009  0.99999999949306750402  0.37818033274633311436    0.36620352889025131748
4.5359999999999992254e-009  0.99999999949234230634  0.37814386396164434423    0.3662035288896127172
4.5419999999999994114e-009  0.99999999949161721968  0.37810750647139756975    0.36620352888871460229
4.5479999999999995975e-009  0.99999999949089213302  0.37807125993223233973    0.3662035288881675954
4.5539999999999997836e-009  0.99999999949016704637  0.37803512400190419918    0.36620352888747975673
4.5599999999999999697e-009  0.99999999948944195971  0.3779990983392763626    0.36620352888670920644
4.5659999999999993286e-009  0.99999999948871665101  0.37796318260432082425    0.36620352888592888618
4.5719999999999995146e-009  0.99999999948799156435  0.37792737645810614566    0.36620352888525398161
4.5779999999999997007e-009  0.99999999948726625565  0.3778916795628027292    0.36620352888466067842
4.5839999999999998868e-009  0.99999999948654116899  0.37785609158167227095    0.36620352888382612377
4.5899999999999992457e-009  0.99999999948581586029  0.37782061217906448558    0.36620352888319740448
4.5959999999999994318e-009  0.99999999948509055159  0.37778524102041333155    0.36620352888243662415
4.6019999999999996178e-009  0.99999999948436524289  0.37774997777223456863    0.36620352888172968964
4.6079999999999998039e-009  0.99999999948363993418  0.37771482210211693165    0.36620352888096024957
4.61399999999999999e-009  0.99999999948291440344  0.3776797736787218529    0.36620352888024243487
4.6199999999999993489e-009  0.99999999948218887269  0.37764483217177968744    0.36620352887959967125
4.625999999999999535e-009  0.99999999948146334194  0.37760999725208249655    0.36620352887886326032
4.631999999999999721e-009  0.99999999948073770017  0.37757526859148110576    0.36620352887808638176
4.6379999999999999071e-009  0.99999999948001205841  0.37754064586288393901    0.36620352887737667169
4.643999999999999266e-009  0.99999999947928641664  0.37750612874024835897    0.36620352887667328989
4.6499999999999994521e-009  0.99999999947856055282  0.37747171689857889065    0.36620352887598467406
4.6559999999999996382e-009  0.99999999947783468901  0.37743741001392233647    0.36620352887519713736
4.6619999999999998242e-009  0.99999999947710904724  0.37740320776336711006    0.36620352887451845803
4.6679999999999991831e-009  0.99999999947638340547  0.37736910982503540923    0.36620352887385859697
4.6739999999999993692e-009  0.99999999947565754166  0.3773351158780803849    0.36620352887294899125
4.6799999999999995553e-009  0.99999999947493167785  0.37730122560268397613    0.3662035288723299864
4.6859999999999997414e-009  0.99999999947420581403  0.37726743868004680715    0.36620352887168405864
4.6919999999999999274e-009  0.99999999947347972817  0.37723375479239423802    0.36620352887088730709
4.6979999999999992863e-009  0.99999999947275386436  0.37720017362296509589    0.36620352887025608979
4.7039999999999994724e-009  0.9999999994720277785  0.37716669485601100886    0.3662035288694910351
4.7099999999999996585e-009  0.99999999947130169264  0.37713331817678713564    0.36620352886873130949
4.7159999999999998446e-009  0.99999999947057549576  0.37710004327156254611    0.3662035288680334788
4.7219999999999992035e-009  0.99999999946984929888  0.37706686982759696214    0.36620352886733137376
4.7279999999999993895e-009  0.999999999469123102  0.37703379753315358069    0.36620352886652807189
4.7339999999999995756e-009  0.99999999946839668308  0.37700082607748519603    0.36620352886591284181
4.7399999999999997617e-009  0.9999999994676704862  0.37696795515083336703    0.36620352886521517766
4.7459999999999999478e-009  0.99999999946694428932  0.37693518444442725146    0.3662035288645617559
4.7519999999999993067e-009  0.99999999946621809244  0.37690251365048083043    0.36620352886367940615
4.7579999999999994927e-009  0.99999999946549189556  0.37686994246217914162    0.36620352886293333627
4.7639999999999996788e-009  0.99999999946476547663  0.37683747057369026967    0.36620352886237478307
4.7699999999999998649e-009  0.99999999946403905771  0.37680509768014736061    0.36620352886155072003
4.7759999999999992238e-009  0.99999999946331241674  0.37677282347765378434    0.36620352886091184219
4.7819999999999994099e-009  0.99999999946258599781  0.37674064766327908238    0.36620352886004708948
4.7879999999999995959e-009  0.99999999946185957889  0.3767085699350494199    0.36620352885930268494
4.793999999999999782e-009  0.99999999946113293792  0.37667658999195202663    0.36620352885876505944
4.7999999999999999681e-009  0.99999999946040618592  0.37664470753392365054    0.36620352885794782427
4.805999999999999327e-009  0.99999999945967943393  0.3766129222618566641    0.36620352885723689296
4.8119999999999995131e-009  0.99999999945895268194  0.37658123387758490885    0.36620352885664564369
4.8179999999999996991e-009  0.99999999945822592995  0.37654964208388780333    0.36620352885579909863
4.8239999999999998852e-009  0.99999999945749895591  0.37651814658448423678    0.36620352885512069685
4.8299999999999992441e-009  0.99999999945677220392  0.37648674708402946054    0.36620352885437879031
4.8359999999999994302e-009  0.99999999945604545193  0.37645544328811675339    0.36620352885367590812
4.8419999999999996162e-009  0.99999999945531869994  0.37642423490326021307    0.36620352885291856948
4.8479999999999998023e-009  0.99999999945459194794  0.37639312163690830104    0.36620352885226281625
4.8539999999999999884e-009  0.99999999945386519595  0.37636210319742524621    0.36620352885138829357
4.8599999999999993473e-009  0.99999999945313822192  0.37633117929410442315    0.36620352885079382466
4.8659999999999995334e-009  0.99999999945241124788  0.37630034963714831253    0.36620352885004009424
4.8719999999999997194e-009  0.99999999945168427384  0.37626961393767643926    0.36620352884931545168
4.8779999999999999055e-009  0.99999999945095729981  0.3762389719077170458    0.36620352884870205346
4.8839999999999992644e-009  0.99999999945023032577  0.37620842326020170754    0.36620352884785267733
4.8899999999999994505e-009  0.99999999944950312969  0.37617796770897221625    0.36620352884722223719
4.8959999999999996366e-009  0.99999999944877593361  0.37614760496876920026    0.36620352884636986346
4.9019999999999998226e-009  0.9999999994480486265  0.37611733475522535208    0.36620352884572537899
4.9079999999999991815e-009  0.9999999994473213194  0.37608715678487331102    0.36620352884501733426
4.9139999999999993676e-009  0.9999999994465940123  0.37605707077513417236    0.36620352884431944807
4.9199999999999995537e-009  0.99999999944586648315  0.37602707644431920819    0.3662035288435724345
4.9259999999999997398e-009  0.99999999944513917605  0.3759971735116206526    0.36620352884274426364
4.9319999999999999258e-009  0.99999999944441186894  0.37596736169711347797    0.3662035288420720236
4.9379999999999992847e-009  0.99999999944368456184  0.37593764072175106516    0.3662035288413980072
4.9439999999999994708e-009  0.99999999944295725474  0.37590801030736448185    0.36620352884059675924
4.9499999999999996569e-009  0.99999999944222994763  0.37587847017665459992    0.36620352883994089499
4.955999999999999843e-009  0.99999999944150241848  0.37584902005319303919    0.36620352883913631636
4.9619999999999992019e-009  0.99999999944077477831  0.37581965966141700486    0.36620352883850604275
4.9679999999999993879e-009  0.99999999944004713814  0.37579038872662795523    0.36620352883794005105
4.973999999999999574e-009  0.999999999439319609  0.37576120697498205381    0.36620352883699225366
4.9799999999999997601e-009  0.99999999943859196883  0.37573211413350376953    0.3662035288363149621
4.9859999999999999462e-009  0.99999999943786410661  0.37570310993006339473    0.36620352883561663182
4.9919999999999993051e-009  0.9999999994371362444  0.37567419409338315139    0.36620352883485834949
4.9979999999999994911e-009  0.99999999943640838218  0.37564536635303857892    0.36620352883417645051
5.0039999999999996772e-009  0.99999999943568051997  0.37561662643944415674    0.36620352883339690742
5.0099999999999998633e-009  0.99999999943495265775  0.37558797408386351835    0.36620352883277290656
5.0159999999999992222e-009  0.99999999943422501758  0.37555940901839457435    0.36620352883192125448
5.0219999999999994083e-009  0.99999999943349693332  0.37553093097597634031    0.3662035288313638115
5.0279999999999995943e-009  0.99999999943276907111  0.37550253969037850066    0.36620352883059309468
5.0339999999999997804e-009  0.99999999943204120889  0.37547423489620174175    0.36620352882987611265
5.0399999999999999665e-009  0.99999999943131334668  0.37544601632887947273    0.36620352882913898007
5.0459999999999993254e-009  0.99999999943058526242  0.37541788372466650126    0.36620352882841916697
5.0519999999999995115e-009  0.9999999994298574002  0.37538983682064186453    0.3662035288276865308
5.0579999999999996975e-009  0.99999999942912931594  0.37536187535470133536    0.36620352882691825647
5.0639999999999998836e-009  0.99999999942840123168  0.37533399906556264014    0.36620352882624035429
5.0699999999999992425e-009  0.9999999994276730364  0.37530620769275380155    0.36620352882557771768
5.0759999999999994286e-009  0.99999999942694484112  0.37527850097661757944    0.36620352882468920619
5.0819999999999996147e-009  0.99999999942621675686  0.37525087865830147882    0.36620352882405299288
5.0879999999999998007e-009  0.99999999942548856158  0.37522334047976257931    0.36620352882322865229
5.0939999999999991596e-009  0.99999999942476014425  0.37519588618376087386    0.36620352882276119288
5.0999999999999993457e-009  0.99999999942403172692  0.37516851551385638208    0.36620352882182682919
5.1059999999999995318e-009  0.9999999994233033096  0.3751412282144059307    0.3662035288211185069
5.1119999999999997179e-009  0.99999999942257511432  0.3751140240305618212    0.36620352882056250721
5.1179999999999999039e-009  0.99999999942184691903  0.37508690270826811064    0.36620352881969514547
5.1239999999999992628e-009  0.99999999942111850171  0.37505986399426122224    0.36620352881900170017
5.1299999999999994489e-009  0.99999999942039008438  0.37503290763606172975    0.3662035288182681203
5.135999999999999635e-009  0.99999999941966166705  0.37500603338197974201    0.36620352881737278095
5.141999999999999821e-009  0.99999999941893324973  0.37497924098110119173    0.36620352881689949287
5.1479999999999991799e-009  0.9999999994182048324  0.37495253018329399719    0.36620352881619683272
5.153999999999999366e-009  0.99999999941747619303  0.37492590073920495364    0.36620352881518963839
5.1599999999999995521e-009  0.9999999994167477757  0.37489935240024918617    0.3662035288147013623
5.1659999999999997382e-009  0.99999999941601913633  0.37487288491861936457    0.36620352881393941624
5.1719999999999999242e-009  0.99999999941529049696  0.37484649804727426803    0.36620352881327894456
5.1779999999999992831e-009  0.99999999941456174657  0.37482019153993995086    0.36620352881251366783
5.1839999999999994692e-009  0.99999999941383299618  0.37479396515110569021    0.36620352881175993742
5.1899999999999996553e-009  0.99999999941310424578  0.37476781863602115497    0.36620352881116613464
5.1959999999999998414e-009  0.99999999941237549539  0.37474175175069424082    0.36620352881038276127
5.2019999999999992003e-009  0.99999999941164663397  0.37471576425189334625    0.36620352880958684239
5.2079999999999993863e-009  0.99999999941091788358  0.37468985589713671436    0.36620352880880191471
5.2139999999999995724e-009  0.99999999941018913319  0.37466402644469481986    0.36620352880810852492
5.2199999999999997585e-009  0.99999999940946038279  0.37463827565358742699    0.36620352880740431045
5.2259999999999999446e-009  0.99999999940873141036  0.37461260328357981475    0.36620352880675482998
5.2319999999999993035e-009  0.99999999940800265996  0.3745870090951823328    0.36620352880593526335
5.2379999999999994895e-009  0.99999999940727368752  0.37456149284964396218    0.36620352880523598937
5.2439999999999996756e-009  0.99999999940654471509  0.3745360543089547023    0.36620352880462125889
5.2499999999999998617e-009  0.99999999940581574265  0.37451069323584212922    0.36620352880384998695
5.2559999999999992206e-009  0.99999999940508677021  0.37448540939376551151    0.36620352880302342591
5.2619999999999994067e-009  0.99999999940435757573  0.37446020254691647633    0.36620352880229573023
5.2679999999999995927e-009  0.99999999940362860329  0.37443507246021612289    0.36620352880161305409
5.2739999999999997788e-009  0.99999999940289963085  0.3744100188993143008    0.36620352880098361315
5.2799999999999991377e-009  0.99999999940217043637  0.37438504163058117236    0.36620352880035106358
5.2859999999999993238e-009  0.99999999940144113086  0.37436014042111026567    0.36620352879948919744
5.2919999999999995099e-009  0.99999999940071182536  0.37433531503871902979    0.36620352879876522101
5.2979999999999996959e-009  0.99999999939998251985  0.37431056525193667772    0.36620352879813883318
5.303999999999999882e-009  0.99999999939925321435  0.37428589083001073679    0.36620352879724332729
5.3099999999999992409e-009  0.99999999939852390884  0.37426129154289955459    0.36620352879673101487
5.315999999999999427e-009  0.9999999993977943813  0.37423676716127496356    0.36620352879591561157
5.3219999999999996131e-009  0.99999999939706485375  0.37421231745651351019    0.36620352879510587041
5.3279999999999997991e-009  0.99999999939633554824  0.37418794220069784284    0.36620352879432133131
5.333999999999999158e-009  0.99999999939560624274  0.37416364116661643413    0.36620352879369133525
5.3399999999999993441e-009  0.99999999939487693723  0.37413941412775758577    0.36620352879280554381
5.3459999999999995302e-009  0.99999999939414763173  0.37411526085830731914    0.36620352879219425501
5.3519999999999997163e-009  0.99999999939341832622  0.37409118113314920873    0.36620352879157419546
5.3579999999999999023e-009  0.99999999939268879867  0.37406717472786094048    0.3662035287908705361
5.3639999999999992612e-009  0.99999999939195927112  0.37404324141871297948    0.36620352879005568791
5.3699999999999994473e-009  0.99999999939122974357  0.37401938098266518384    0.36620352878938877694
5.3759999999999996334e-009  0.99999999939050021602  0.37399559319736436214    0.366203528788580146
5.3819999999999998195e-009  0.99999999938977068847  0.37397187784114443998    0.36620352878784878659
5.3879999999999991783e-009  0.99999999938904116092  0.37394823469302423957    0.36620352878715373146
5.3939999999999993644e-009  0.99999999938831163337  0.37392466353269582235    0.3662035287864037203
5.3999999999999995505e-009  0.99999999938758188378  0.37390116414053770066    0.36620352878574480293
5.4059999999999997366e-009  0.99999999938685202316  0.37387773629760256977    0.36620352878504563998
5.4119999999999999227e-009  0.99999999938612216255  0.37385437978561575356    0.36620352878427891996
5.4179999999999992815e-009  0.99999999938539230193  0.3738310943869774805    0.3662035287835269104
5.4239999999999994676e-009  0.99999999938466244132  0.37380787988475805417    0.36620352878288986442
5.4299999999999996537e-009  0.9999999993839325807  0.37378473606269213558    0.36620352878215017833
5.4359999999999998398e-009  0.99999999938320272008  0.37376166270518507151    0.36620352878144180053
5.4419999999999991987e-009  0.99999999938247263742  0.37373865959729962727    0.36620352878077550018
5.4479999999999993847e-009  0.99999999938174277681  0.37371572652476792165    0.36620352877993933571
5.4539999999999995708e-009  0.99999999938101291619  0.37369286327397571723    0.36620352877913753264
5.4599999999999997569e-009  0.99999999938028305557  0.37367006963196713887    0.36620352877851236606
5.4659999999999991158e-009  0.99999999937955319496  0.37364734538644356343    0.36620352877780792955
5.4719999999999993019e-009  0.99999999937882333434  0.37362469032575457151    0.36620352877704587247
5.4779999999999994879e-009  0.99999999937809347372  0.37360210423890533038    0.36620352877632555977
5.483999999999999674e-009  0.99999999937736339106  0.37357958691555009922    0.36620352877557588167
5.4899999999999998601e-009  0.9999999993766333084  0.37355713814598456857    0.36620352877489270593
5.495999999999999219e-009  0.99999999937590322574  0.37353475772115724007    0.36620352877402534419
5.5019999999999994051e-009  0.99999999937517314308  0.37351244543265321729    0.36620352877336548314
5.5079999999999995911e-009  0.99999999937444306042  0.37349020107269875757    0.3662035287727360422
5.5139999999999997772e-009  0.99999999937371297776  0.37346802443416160511    0.36620352877191331142
5.5199999999999991361e-009  0.9999999993729828951  0.37344591531054355249    0.36620352877116957302
5.5259999999999993222e-009  0.99999999937225259039  0.37342387349598049617    0.36620352877045742046
5.5319999999999995083e-009  0.99999999937152228568  0.37340189878524304712    0.36620352876977502188
5.5379999999999996943e-009  0.99999999937079198098  0.37337999097373086865    0.36620352876901512973
5.5439999999999998804e-009  0.99999999937006156525  0.37335814985747106665    0.36620352876820222443
5.5499999999999992393e-009  0.99999999936933114952  0.37333637523311957729    0.36620352876766915085
5.5559999999999994254e-009  0.9999999993686007338  0.37331466689795617109    0.36620352876676032228
5.5619999999999996115e-009  0.99999999936787054011  0.3732930246498821214    0.3662035287661187799
5.5679999999999997975e-009  0.99999999936714012438  0.37327144828742009341    0.3662035287653889748
5.5739999999999991564e-009  0.99999999936640948661  0.37324993760971042489    0.36620352876464373759
5.5799999999999993425e-009  0.99999999936567907088  0.37322849241651151475    0.36620352876383616136
5.5859999999999995286e-009  0.99999999936494865516  0.37320711250819388338    0.36620352876319656188
5.5919999999999997147e-009  0.99999999936421823943  0.37318579768574378086    0.36620352876240158668
5.5979999999999999007e-009  0.9999999993634878237  0.37316454775075530437    0.36620352876179940171
5.6039999999999992596e-009  0.99999999936275740797  0.37314336250543278517    0.36620352876107115092
5.6099999999999994457e-009  0.99999999936202699224  0.37312224175258812409    0.3662035287602800615
5.6159999999999996318e-009  0.99999999936129657652  0.37310118529563568446    0.36620352875960637817
5.6219999999999998179e-009  0.99999999936056593874  0.37308019293859584486    0.36620352875883377397
5.6279999999999991768e-009  0.99999999935983518995  0.37305926448608917045    0.3662035287582131593
5.6339999999999993628e-009  0.99999999935910444115  0.37303839974333535823    0.36620352875740003196
5.6399999999999995489e-009  0.99999999935837380338  0.37301759851614962882    0.3662035287567864672
5.645999999999999735e-009  0.99999999935764305459  0.37299686061094489142    0.36620352875598782827
5.6519999999999990939e-009  0.99999999935691230579  0.37297618583472613718    0.36620352875549172511
5.6579999999999992799e-009  0.99999999935618166802  0.37295557399509104979    0.36620352875457806707
5.663999999999999466e-009  0.99999999935545091923  0.37293502490022761853    0.366203528753746399
5.6699999999999996521e-009  0.99999999935471994839  0.37291453835891041901    0.36620352875312645047
5.6759999999999998382e-009  0.99999999935398897755  0.37289411418050127933    0.36620352875226330758
5.6819999999999991971e-009  0.99999999935325800671  0.37287375217494395097    0.36620352875165662621
5.6879999999999993831e-009  0.99999999935252703587  0.37285345215276982644    0.36620352875083161948
5.6939999999999995692e-009  0.99999999935179606503  0.37283321392508339542    0.36620352875013073568
5.6999999999999997553e-009  0.99999999935106509419  0.37281303730357512327    0.36620352874947686983
5.7059999999999991142e-009  0.99999999935033434539  0.3727929221005091831    0.36620352874864375847
5.7119999999999993003e-009  0.99999999934960337455  0.37277286812872334476    0.36620352874801509468
5.7179999999999994863e-009  0.99999999934887218167  0.37275287520163208344    0.36620352874723482994
5.7239999999999996724e-009  0.99999999934814121083  0.37273294313321808646    0.36620352874654626962
5.7299999999999998585e-009  0.99999999934741023999  0.37271307173803680524    0.36620352874585448966
5.7359999999999992174e-009  0.99999999934667926915  0.37269326083120918325    0.36620352874502809515
5.7419999999999994035e-009  0.99999999934594829831  0.37267351022842371    0.36620352874439854318
5.7479999999999995895e-009  0.99999999934521710543  0.37265381974593370096    0.36620352874346351335
5.7539999999999997756e-009  0.99999999934448613459  0.37263418920055341177    0.36620352874288791822
5.7599999999999991345e-009  0.99999999934375516375  0.37261461840965842685    0.36620352874208789151
5.7659999999999993206e-009  0.99999999934302397087  0.37259510719118382749    0.3662035287413341611
5.7719999999999995067e-009  0.99999999934229277798  0.37257565536362324821    0.36620352874072353844
5.7779999999999996927e-009  0.99999999934156147408  0.37255626274602376968    0.36620352874007239263
5.7839999999999998788e-009  0.99999999934083028119  0.37253692915798886087    0.36620352873925854365
5.7899999999999992377e-009  0.99999999934009897729  0.37251765441967216175    0.36620352873848732722
5.7959999999999994238e-009  0.99999999933936767338  0.3724984383517764841    0.36620352873773270863
5.8019999999999996099e-009  0.99999999933863636947  0.3724792807755545887    0.36620352873705935837
5.8079999999999997959e-009  0.99999999933790517659  0.37246018151281040653    0.36620352873639883118
5.8139999999999991548e-009  0.99999999933717365064  0.37244114038588471693    0.36620352873572992181
5.8199999999999993409e-009  0.99999999933644212469  0.37242215721766774861    0.36620352873490080725
5.825999999999999527e-009  0.99999999933571059874  0.37240323183159146359    0.36620352873408473782
5.8319999999999997131e-009  0.99999999933497929483  0.37238436405162567144    0.36620352873341316391
5.8379999999999998991e-009  0.99999999933424776888  0.3723655537022810269    0.36620352873267347782
5.843999999999999258e-009  0.99999999933351646497  0.37234680060860192441    0.36620352873199912835
5.8499999999999994441e-009  0.99999999933278493902  0.37232810459617116106    0.36620352873128397819
5.8559999999999996302e-009  0.99999999933205363511  0.37230946549110360833    0.36620352873053801934
5.8619999999999998163e-009  0.99999999933132210916  0.37229088312004493533    0.36620352872986189352
5.8679999999999991752e-009  0.99999999933059058321  0.37227235731017149778    0.36620352872906375419
5.8739999999999993612e-009  0.99999999932985905726  0.37225388788918756244    0.36620352872845679526
5.8799999999999995473e-009  0.99999999932912753131  0.3722354746853261398    0.36620352872764760921
5.8859999999999997334e-009  0.99999999932839600536  0.37221711752734620848    0.36620352872698930247
5.8919999999999990923e-009  0.99999999932766447941  0.37219881624452499924    0.36620352872612282891
5.8979999999999992784e-009  0.99999999932693273141  0.37218057066666759836    0.3662035287254661875
5.9039999999999994644e-009  0.99999999932620120546  0.37216238062409762177    0.36620352872471628736
5.9099999999999996505e-009  0.99999999932546967951  0.37214424594765377341    0.36620352872403266753
5.9159999999999998366e-009  0.99999999932473815356  0.37212616646869794979    0.36620352872327061045
5.9219999999999991955e-009  0.99999999932400640557  0.37210814201910197285    0.36620352872258726817
5.9279999999999993816e-009  0.99999999932327454655  0.37209017243125441787    0.36620352872176137327
5.9339999999999995676e-009  0.99999999932254279855  0.37207225753805545088    0.36620352872101291641
5.9399999999999997537e-009  0.99999999932181093953  0.37205439717291655111    0.36620352872017275514
5.9459999999999991126e-009  0.99999999932107908052  0.37203659116975745791    0.36620352871961164842
5.9519999999999992987e-009  0.9999999993203472215  0.37201883936300683686    0.36620352871886030499
5.9579999999999994847e-009  0.99999999931961536248  0.37200114158759628458    0.36620352871827605012
5.9639999999999996708e-009  0.99999999931888361449  0.37198349767896415896    0.36620352871736089329
5.9699999999999998569e-009  0.99999999931815175547  0.37196590747304986158    0.36620352871675038164
5.9759999999999992158e-009  0.99999999931741967441  0.37194837080629983284    0.36620352871583672361
5.9819999999999994019e-009  0.99999999931668759334  0.37193088751565184236    0.36620352871519229465
5.9879999999999995879e-009  0.99999999931595573432  0.37191345743854548056    0.3662035287145543605
5.993999999999999774e-009  0.99999999931522365326  0.37189608041291838392    0.36620352871380512649
5.9999999999999991329e-009  0.99999999931449179424  0.37187875627720007321    0.36620352871307498832
6.005999999999999319e-009  0.99999999931375993523  0.37186148487031589482    0.36620352871237121795
6.0119999999999995051e-009  0.99999999931302785416  0.3718442660316848003    0.36620352871172051623
6.0179999999999996911e-009  0.99999999931229599515  0.37182709960121324011    0.36620352871098149627
6.0239999999999998772e-009  0.99999999931156413613  0.37180998541929560774    0.36620352871021866203
6.0299999999999992361e-009  0.99999999931083183302  0.37179292332681740385    0.36620352870942751711
6.0359999999999994222e-009  0.99999999931009975196  0.37177591316514579933    0.36620352870880479301
6.0419999999999996083e-009  0.9999999993093676709  0.37175895477613796203    0.36620352870810424228
6.0479999999999997943e-009  0.99999999930863536779  0.37174204800212901079    0.36620352870716532667
6.0539999999999991532e-009  0.99999999930790328673  0.37172519268593745556    0.36620352870643890775
6.0599999999999993393e-009  0.99999999930717120566  0.37170838867086175572    0.36620352870588801508
6.0659999999999995254e-009  0.9999999993064391246  0.37169163580067826613    0.36620352870501721165
6.0719999999999997115e-009  0.99999999930570704354  0.37167493391964218086    0.36620352870432965053
6.0779999999999990704e-009  0.99999999930497496248  0.37165828287248026118    0.36620352870369282661
6.0839999999999992564e-009  0.99999999930424265937  0.37164168250439427732    0.3662035287028514996
6.0899999999999994425e-009  0.99999999930351035626  0.37162513266106295129    0.36620352870216521524
6.0959999999999996286e-009  0.99999999930277805316  0.37160863318863351923    0.36620352870147704349
6.1019999999999998147e-009  0.99999999930204563903  0.37159218393372089873    0.3662035287006975004
6.1079999999999991736e-009  0.9999999993013132249  0.37157578474340824393    0.36620352869993294531
6.1139999999999993596e-009  0.99999999930058081077  0.37155943546524766719    0.36620352869919509109
6.1199999999999995457e-009  0.99999999929984839664  0.37154313594725912884    0.36620352869854483346
6.1259999999999997318e-009  0.99999999929911609353  0.37152688603792094479    0.36620352869771533033
6.1319999999999990907e-009  0.9999999992983836794  0.37151068558617611481    0.36620352869697914144
6.1379999999999992768e-009  0.99999999929765126527  0.37149453444142704894    0.36620352869633754356
6.1439999999999994628e-009  0.99999999929691885114  0.37147843245354017494    0.36620352869556233033
6.1499999999999996489e-009  0.99999999929618621497  0.37146237947283466951    0.36620352869490835346
6.155999999999999835e-009  0.9999999992954535788  0.37144637535009078499    0.36620352869417327479
6.1619999999999991939e-009  0.99999999929472116467  0.37143041993654141164    0.36620352869348210545
6.16799999999999938e-009  0.99999999929398875054  0.37141451308387662955    0.36620352869272654317
6.173999999999999566e-009  0.99999999929325633641  0.37139865464423205133    0.36620352869186356681
6.1799999999999997521e-009  0.99999999929252392228  0.37138284447020325496    0.36620352869127764661
6.185999999999999111e-009  0.9999999992917912861  0.37136708241482946358    0.36620352869055694534
6.1919999999999992971e-009  0.99999999929105887198  0.3713513683316029268    0.36620352868987415818
6.1979999999999994832e-009  0.99999999929032645785  0.37133570207445681932    0.36620352868908334631
6.2039999999999996692e-009  0.99999999928959404372  0.37132008349777517742    0.36620352868834749049
6.2099999999999998553e-009  0.99999999928886162959  0.37130451245638401714    0.36620352868759853404
6.2159999999999992142e-009  0.99999999928812877137  0.37128898880555188944    0.3662035286868456363
6.2219999999999994003e-009  0.99999999928739613519  0.3712735124009915455    0.36620352868603828211
6.2279999999999995864e-009  0.99999999928666349902  0.37125808309885116598    0.36620352868544026048
6.2339999999999997724e-009  0.9999999992859306408  0.37124270075572174399    0.36620352868455302575
6.2399999999999991313e-009  0.99999999928519800463  0.37122736522863242214    0.36620352868392763712
6.2459999999999993174e-009  0.99999999928446536845  0.37121207637504366472    0.36620352868316574657
6.2519999999999995035e-009  0.99999999928373273228  0.37119683405285563982    0.36620352868249905764
6.2579999999999996895e-009  0.99999999928300009611  0.37118163812039972616    0.36620352868180816586
6.2639999999999990484e-009  0.99999999928226723789  0.37116648843643768041    0.36620352868105382482
6.2699999999999992345e-009  0.99999999928153460171  0.37115138486016607811    0.36620352868032973737
6.2759999999999994206e-009  0.9999999992808017435  0.37113632725120454525    0.36620352867962108201
6.2819999999999996067e-009  0.99999999928006877425  0.37112131546960824835    0.36620352867882061121
6.2879999999999997927e-009  0.99999999927933580501  0.37110634937585706972    0.3662035286781425425
6.2939999999999991516e-009  0.99999999927860283577  0.37109142883085144415    0.36620352867725064483
6.2999999999999993377e-009  0.99999999927786986653  0.37107655369592273953    0.36620352867668981567
6.3059999999999995238e-009  0.99999999927713689729  0.3710617238328199341    0.36620352867584504697
6.3119999999999997099e-009  0.99999999927640392805  0.37104693910371705501    0.36620352867517458328
6.3179999999999990688e-009  0.99999999927567095881  0.37103219937120768268    0.36620352867444722067
6.3239999999999992548e-009  0.99999999927493798957  0.37101750449830162015    0.36620352867359684534
6.3299999999999994409e-009  0.99999999927420502033  0.37100285434843033316    0.36620352867303562761
6.335999999999999627e-009  0.99999999927347205109  0.370988248785438679    0.36620352867234340355
6.3419999999999998131e-009  0.99999999927273897082  0.37097368767358862574    0.36620352867157285326
6.347999999999999172e-009  0.99999999927200577954  0.37095917087755281294    0.36620352867086164439
6.353999999999999358e-009  0.9999999992712728103  0.37094469826242254529    0.36620352867013633569
6.3599999999999995441e-009  0.99999999927053984106  0.37093026969369491397    0.36620352866917926793
6.3659999999999997302e-009  0.99999999926980687182  0.37091588503727851434    0.3662035286685434432
6.3719999999999990891e-009  0.99999999926907390257  0.37090154415949228017    0.3662035286678883006
6.3779999999999992752e-009  0.99999999926834093333  0.37088724692706132036    0.36620352866716915363
6.3839999999999994612e-009  0.99999999926760796409  0.37087299320711647477    0.3662035286664591105
6.3899999999999996473e-009  0.99999999926687499485  0.37085878286719409225    0.36620352866568040007
6.3959999999999998334e-009  0.99999999926614202561  0.37084461577523536446    0.36620352866493888211
6.4019999999999991923e-009  0.99999999926540905637  0.37083049179958516017    0.36620352866429828342
6.4079999999999993784e-009  0.99999999926467608713  0.37081641080898519736    0.36620352866345939891
6.4139999999999995644e-009  0.99999999926394289584  0.37080237267258009393    0.36620352866275152071
6.4199999999999997505e-009  0.99999999926320970456  0.37078837725991387053    0.36620352866204841646
6.4259999999999991094e-009  0.99999999926247640225  0.37077442444092911789    0.36620352866128835778
6.4319999999999992955e-009  0.99999999926174321097  0.37076051408595878112    0.36620352866065308817
6.4379999999999994816e-009  0.99999999926100990866  0.37074664606573898284    0.36620352865984401314
6.4439999999999996676e-009  0.99999999926027671737  0.3707328202513961446    0.36620352865917610297
6.4499999999999990265e-009  0.99999999925954341506  0.37071903651444826355    0.36620352865849087332
6.4559999999999992126e-009  0.99999999925881022378  0.37070529472680668892    0.3662035286576395543
6.4619999999999993987e-009  0.99999999925807692147  0.37069159476077323534    0.36620352865702515688
6.4679999999999995848e-009  0.99999999925734373019  0.37067793648903729631    0.36620352865617772364
6.4739999999999997708e-009  0.99999999925661042788  0.37066431978467923036    0.36620352865536531795
6.4799999999999991297e-009  0.99999999925587701455  0.37065074452116331116    0.36620352865470129355
6.4859999999999993158e-009  0.9999999992551434902  0.37063721057233944833    0.36620352865396915698
6.4919999999999995019e-009  0.99999999925440996584  0.37062371781244496383    0.3662035286532678291
6.497999999999999688e-009  0.99999999925367644149  0.37061026611609709791    0.36620352865250693775
6.5039999999999990468e-009  0.99999999925294291714  0.37059685535829817171    0.36620352865183303237
6.5099999999999992329e-009  0.99999999925220939279  0.37058348541442748258    0.36620352865108557472
6.515999999999999419e-009  0.99999999925147586843  0.37057015616024729932    0.36620352865027833156
6.5219999999999996051e-009  0.99999999925074234408  0.37055686747189781061    0.36620352864967936624
6.5279999999999997912e-009  0.99999999925000881973  0.37054361922589684752    0.36620352864892458111
6.53399999999999915e-009  0.99999999924927529538  0.37053041129913732998    0.36620352864824506911
6.5399999999999993361e-009  0.99999999924854177102  0.37051724356888893208    0.3662035286474027429
6.5459999999999995222e-009  0.99999999924780846872  0.3705041159127925865    0.36620352864675603799
6.5519999999999997083e-009  0.99999999924707494436  0.37049102820886470333    0.36620352864591726449
6.5579999999999990672e-009  0.99999999924634119797  0.3704779803354926182    0.3662035286452492433
6.5639999999999992532e-009  0.99999999924560767361  0.37046497217143409264    0.36620352864452287989
6.5699999999999994393e-009  0.99999999924487414926  0.3704520035958173696    0.36620352864385424807
6.5759999999999996254e-009  0.99999999924414062491  0.37043907448813689909    0.36620352864310373731
6.5819999999999998115e-009  0.99999999924340710056  0.3704261847282563358    0.36620352864236321855
6.5879999999999991704e-009  0.99999999924267357621  0.37041333419640198876    0.36620352864159527728
6.5939999999999993564e-009  0.99999999924194005185  0.37040052277316937168    0.36620352864084165789
6.5999999999999995425e-009  0.9999999992412065275  0.37038775033951631954    0.36620352864011623817
6.6059999999999997286e-009  0.99999999924047300315  0.37037501677675921385    0.36620352863936939114
6.6119999999999990875e-009  0.9999999992397394788  0.37036232196658347426    0.36620352863872041027
6.6179999999999992736e-009  0.99999999923900595444  0.37034966579102984729    0.36620352863799043863
6.6239999999999994596e-009  0.99999999923827243009  0.3703370481324986252    0.36620352863721589154
6.6299999999999996457e-009  0.99999999923753868369  0.37032446887375225497    0.3662035286364819231
6.6359999999999998318e-009  0.99999999923680482627  0.37031192789790429165    0.36620352863570204693
6.6419999999999991907e-009  0.99999999923607107988  0.37029942508843016746    0.36620352863512001251
6.6479999999999993768e-009  0.99999999923533722246  0.37028696032915525693    0.36620352863429578294
6.6539999999999995628e-009  0.99999999923460336504  0.3702745335042634256    0.3662035286335235118
6.6599999999999997489e-009  0.99999999923386961864  0.37026214449828803721    0.36620352863282273903
6.6659999999999991078e-009  0.99999999923313576122  0.37024979319611495132    0.3662035286321027594
6.6719999999999992939e-009  0.99999999923240201483  0.37023747948298446619    0.36620352863132826782
6.67799999999999948e-009  0.99999999923166815741  0.37022520324447849571    0.36620352863060151583
6.683999999999999666e-009  0.99999999923093441101  0.37021296436653550188    0.36620352862992766596
6.6899999999999990249e-009  0.99999999923020055359  0.37020076273543622847    0.36620352862915306336
6.695999999999999211e-009  0.99999999922946669617  0.37018859823781041785    0.36620352862840721553
6.7019999999999993971e-009  0.99999999922873294977  0.37017647076063242562    0.36620352862767008295
6.7079999999999995832e-009  0.99999999922799909235  0.37016438019121944425    0.36620352862675292771
6.7139999999999997692e-009  0.99999999922726512391  0.37015232641723411211    0.36620352862632915558
6.7199999999999991281e-009  0.99999999922653104445  0.3701403093266807387    0.36620352862546001749
6.7259999999999993142e-009  0.99999999922579696499  0.37012832880790369483    0.36620352862484700784
6.7319999999999995003e-009  0.99999999922506310757  0.37011638474958796774    0.3662035286239442855
6.7379999999999996864e-009  0.9999999992243290281  0.37010447704075816189    0.36620352862336158495
6.7439999999999990453e-009  0.99999999922359494864  0.37009260557077588993    0.36620352862266536409
6.7499999999999992313e-009  0.99999999922286086917  0.37008077022934166012    0.36620352862184035736
6.7559999999999994174e-009  0.99999999922212701176  0.37006897090648899207    0.36620352862110894243
6.7619999999999996035e-009  0.99999999922139293229  0.37005720749258841362    0.36620352862052829579
6.7679999999999997896e-009  0.99999999922065885283  0.37004547987834429668    0.36620352861964783342
6.7739999999999991485e-009  0.99999999921992477336  0.37003378795479224816    0.36620352861903876507
6.7799999999999993345e-009  0.99999999921919091594  0.37002213161330221869    0.36620352861831584335
6.7859999999999995206e-009  0.99999999921845683648  0.37001051074557378406    0.36620352861746030548
6.7919999999999997067e-009  0.99999999921772253497  0.3699989252436340359    0.36620352861666766175
6.7979999999999990656e-009  0.99999999921698845551  0.36998737499984274413    0.36620352861596017213
6.8039999999999992516e-009  0.99999999921625437604  0.36997585990688686142    0.36620352861541421996
6.8099999999999994377e-009  0.99999999921552029658  0.3699643798577782472    0.36620352861466631822
6.8159999999999996238e-009  0.99999999921478621712  0.36995293474585577709    0.36620352861376886944
6.8219999999999998099e-009  0.99999999921405213765  0.36994152446478162366    0.36620352861318594684
6.8279999999999991688e-009  0.99999999921331805819  0.36993014890854375443    0.36620352861237226438
6.8339999999999993548e-009  0.99999999921258375668  0.36991880797145254567    0.36620352861166882708
6.8399999999999995409e-009  0.99999999921184945517  0.36990750154814083794    0.36620352861095434305
6.845999999999999727e-009  0.99999999921111537571  0.36989622953355955071    0.36620352861025839974
6.8519999999999990859e-009  0.99999999921038129624  0.36988499182298245627    0.3662035286094308395
6.857999999999999272e-009  0.99999999920964721678  0.36987378831200312668    0.36620352860857985355
6.863999999999999458e-009  0.99999999920891313732  0.36986261889652743973    0.36620352860799926242
6.8699999999999996441e-009  0.99999999920817905785  0.36985148347278357095    0.36620352860714822096
6.875999999999999003e-009  0.99999999920744497839  0.36984038193731461064    0.36620352860648835991
6.8819999999999991891e-009  0.99999999920671067688  0.36982931418697889692    0.36620352860588523125
6.8879999999999993752e-009  0.99999999920597626435  0.36981828011894668506    0.36620352860509991499
6.8939999999999995612e-009  0.99999999920524196284  0.36980727963070292308    0.36620352860441679477
6.8999999999999997473e-009  0.99999999920450755031  0.36979631262004536429    0.3662035286035746906
6.9059999999999991062e-009  0.99999999920377313778  0.36978537898508206938    0.36620352860275046103
6.9119999999999992923e-009  0.99999999920303883627  0.36977447862423296066    0.36620352860208399415
6.9179999999999994784e-009  0.99999999920230442374  0.36976361143622366034    0.36620352860145788387
6.9239999999999996644e-009  0.99999999920157001121  0.36975277732009093068    0.36620352860049709687
6.9299999999999990233e-009  0.99999999920083559868  0.36974197617517806647    0.36620352859985250138
6.9359999999999992094e-009  0.99999999920010129717  0.36973120790113439549    0.36620352859911953214
6.9419999999999993955e-009  0.99999999919936688464  0.36972047239791860918    0.36620352859829441439
6.9479999999999995816e-009  0.99999999919863247211  0.36970976956578854855    0.36620352859773513954
6.9539999999999997676e-009  0.9999999991978981706  0.3696990993053109742    0.36620352859697058445
6.9599999999999991265e-009  0.99999999919716375807  0.36968846151735046401    0.36620352859623545028
6.9659999999999993126e-009  0.99999999919642934554  0.36967785610307601907    0.36620352859542498747
6.9719999999999994987e-009  0.99999999919569482199  0.36966728296395728881    0.36620352859480975738
6.9779999999999996848e-009  0.99999999919496018741  0.36965674200176307229    0.36620352859407884205
6.9839999999999990437e-009  0.99999999919422555283  0.369646233118563039    0.36620352859331112283
6.9899999999999992297e-009  0.9999999991934911403  0.36963575621672367655    0.36620352859261023903
6.9959999999999994158e-009  0.99999999919275650573  0.36962531119890812414    0.36620352859189314598
7.0019999999999996019e-009  0.99999999919202187115  0.36961489796807911468    0.36620352859120020028
7.007999999999999788e-009  0.99999999919128745862  0.36960451642749014844    0.36620352859040128379
7.0139999999999991469e-009  0.99999999919055282405  0.36959416648069337574    0.36620352858970062204
7.0199999999999993329e-009  0.99999999918981841152  0.36958384803153249143    0.36620352858891497272
7.025999999999999519e-009  0.99999999918908377694  0.36957356098414401169    0.3662035285883225022
7.0319999999999997051e-009  0.99999999918834914236  0.36956330524295855078    0.36620352858748989044
7.037999999999999064e-009  0.99999999918761472983  0.36955308071269299397    0.36620352858669935614
7.0439999999999992501e-009  0.99999999918688009526  0.36954288729835971239    0.36620352858605165203
7.0499999999999994361e-009  0.99999999918614568273  0.36953272490525607141    0.36620352858529142681
7.0559999999999996222e-009  0.99999999918541104815  0.36952259343896964872    0.36620352858461102663
7.0619999999999989811e-009  0.99999999918467641358  0.36951249280537595832    0.36620352858384830341
7.0679999999999991672e-009  0.999999999183941779  0.36950242291063528643    0.36620352858312937849
7.0739999999999993533e-009  0.99999999918320714443  0.36949238366119530053    0.36620352858223392811
7.0799999999999995393e-009  0.99999999918247250985  0.36948237496378877331    0.3662035285816330199
7.0859999999999997254e-009  0.99999999918173787528  0.36947239672543236155    0.36620352858090532422
7.0919999999999990843e-009  0.9999999991810032407  0.36946244885342383046    0.3662035285802167639
7.0979999999999992704e-009  0.99999999918026860612  0.36945253125534388561    0.3662035285793276973
7.1039999999999994564e-009  0.9999999991795337495  0.36944264383905595084    0.36620352857870086538
7.1099999999999996425e-009  0.99999999917879911493  0.3694327865127021715    0.36620352857805948954
7.1159999999999990014e-009  0.99999999917806448035  0.36942295918470446914    0.36620352857719740136
7.1219999999999991875e-009  0.99999999917732984578  0.3694131617637680387    0.36620352857654320244
7.1279999999999993736e-009  0.9999999991765952112  0.36940339415886647156    0.36620352857576005112
7.1339999999999995596e-009  0.99999999917586057663  0.36939365627926123992    0.36620352857509719247
7.1399999999999997457e-009  0.99999999917512594205  0.36938394803448265646    0.36620352857426391457
7.1459999999999991046e-009  0.99999999917439130748  0.3693742693343407546    0.36620352857358984267
7.1519999999999992907e-009  0.9999999991736566729  0.36936462008891829401    0.36620352857284821368
